  -9.6706942e-03   1.8671990e-01   5.6004097e-03   4.9350532e-02  -5.2002893e-02   3.6989788e-02  -4.1913362e-02   1.1981966e-02   2.1680236e-02   3.6399522e-02  -2.4959141e-01   1.5702174e-03  -5.3054494e-02   4.9019723e-02  -9.2262728e-03   6.0504086e-03   3.0642179e-02   1.9152931e-02   1.6693783e-02   4.0144754e-02  -9.2794789e-02   1.2630832e-01   2.1484252e-02  -1.1594285e-01  -1.6041806e-01  -6.3024382e-02  -3.3627603e-02   3.9069404e-02  -9.9935724e-02  -6.8653401e-02   8.7968688e-03  -3.7921350e-02   5.9593142e-02  -9.4963985e-04   8.9053369e-02   3.9365126e-02  -1.1071430e-02   2.1702205e-01  -1.3936925e-04   7.0825540e-02  -3.3266973e-02  -2.0825054e-01   8.0539160e-02  -1.1362539e-02   1.2517123e-01   3.2020374e-03   1.8232840e-02  -4.7938968e-02  -2.0828100e-01  -1.0864665e-01
   3.2593485e-02   1.0438049e-01  -1.4126994e-03   1.4879709e-01   1.6207782e-01   1.4016588e-01  -9.1250207e-03   1.5465456e-02  -5.7093568e-02   3.2327311e-02   4.0099521e-03  -8.5648324e-03   1.4750588e-01  -2.1569767e-01  -7.0933874e-02   2.3333860e-02   4.9901366e-02  -2.5040737e-01   7.8600813e-03  -1.1491535e-02  -3.8284049e-02  -1.2971895e-01  -1.8766735e-02  -3.6633498e-01   1.3183117e-01   8.5490101e-02  -1.9036970e-01  -9.9588724e-02  -9.3701816e-02   1.8776818e-01   2.0566984e-02   6.4146749e-02   1.0363204e-02  -4.3046253e-02  -1.2043932e-01   1.6851339e-01  -2.9575732e-02   6.7864243e-02  -4.7165790e-03  -8.6415880e-04   1.1830191e-01  -3.9577549e-01   7.4042062e-02   4.7993618e-02  -2.0476984e-02  -1.0112676e-01   4.5714694e-02   3.3219149e-01   5.9323213e-02   1.3539525e-01
   2.3702802e-02   2.8465665e-01  -2.7364417e-03  -6.3875634e-02   1.3829877e-01  -1.4250989e-01   9.0583668e-02   2.1625250e-02  -2.5074062e-01  -3.9566547e-02  -6.0260833e-02  -2.6901923e-02  -9.6020389e-03   1.3952585e-02   1.8457752e-02  -7.9238072e-02   7.1324190e-02  -9.3515064e-02   1.1131976e-02   6.8115735e-02  -1.9037507e-02   3.3574444e-02  -3.0016873e-02   1.1116373e-02   8.5030585e-02  -4.6749553e-02  -3.8492418e-03   8.6149584e-03  -2.9382187e-02   2.6374829e-02  -4.8575457e-02   2.3582181e-01  -1.0717937e-02   2.2914775e-02   2.0548177e-01   4.6621332e-02  -1.7931445e-02   1.2423578e-01  -4.7469896e-03   1.3787473e-01  -1.1942518e-01   9.6078355e-02  -8.5409445e-02   6.7732011e-02  -1.2082748e-01   3.2385035e-01   2.2646967e-02   2.6577462e-01   1.3447775e-01  -2.8243662e-04
  -4.2645775e-02   1.2238524e-01  -1.8170153e-03   2.8237298e-01   6.6064264e-02   2.4886033e-01   1.0549124e-01  -3.7919060e-03  -1.5470196e-01  -7.7255155e-03  -4.4296417e-02   9.4821051e-02  -2.3998353e-01  -2.3127621e-01   1.9112364e-01   3.7158437e-02   2.0496263e-02   7.3391492e-02  -8.6361908e-03   2.6034143e-02  -3.8768235e-02   4.9990354e-02   1.3815486e-01  -9.1981788e-02  -1.0099626e-03   1.3774360e-01   9.6128442e-02  -9.9644616e-02  -1.6930401e-02   1.4831160e-01   1.2597401e-01  -6.1474219e-02   4.3624292e-02   1.9000273e-02  -1.9107163e-01  -2.8765160e-02  -6.4369926e-02   3.9026483e-02  -1.8841503e-03   6.5876323e-02   2.1681990e-01   6.4650651e-02   1.4376921e-01  -7.5054687e-02  -2.8308331e-01  -1.8542177e-01   5.1968640e-02  -2.5815903e-02   1.4118969e-02  -9.4574310e-02
  -5.8157295e-02  -8.5354087e-02   7.1081388e-03  -5.4846323e-02  -3.7855455e-02  -2.3630840e-02  -1.6280036e-01  -3.8704451e-02   1.7691797e-01  -7.1798854e-02   1.1544010e-01  -6.0151623e-02  -1.4290758e-01   7.7771965e-02  -8.7422896e-02  -2.3179099e-03   1.2147517e-02   3.0599944e-02   4.5676246e-02  -3.1222112e-01  -1.6858257e-01   2.5366999e-01  -4.4318642e-03  -1.0936601e-01  -1.1561519e-01   7.6553395e-02   2.7491909e-02   1.4642877e-01   1.0664291e-01   1.6006251e-01  -1.7366790e-02  -2.5258334e-01   9.4830468e-02   7.0822993e-02   1.5276205e-02  -1.2462768e-01  -9.8870668e-02   2.0712919e-01  -2.4002046e-03   6.1258273e-02   2.0110124e-01   5.5594831e-02  -6.0454270e-02   7.5675174e-02   1.1255616e-01   7.8300204e-02  -4.1142771e-02   3.9177823e-01  -1.3156035e-01  -3.2799339e-02
  -1.1612377e-02   5.2801189e-02   1.4338655e-03   3.0809660e-02   3.0042274e-02   9.4521517e-02  -5.4152194e-02   2.4445850e-02  -2.0603117e-01  -8.6187905e-02  -2.2215260e-01  -2.7834454e-02   5.1429500e-02   1.3244403e-01  -1.0549057e-01  -3.3784535e-02  -7.0093581e-02   2.8122228e-02   3.5185936e-02   1.0831155e-01  -5.2918747e-02  -1.1999520e-01  -1.0331244e-01   1.1582752e-01   1.8494499e-01  -1.2632626e-01  -6.4940159e-02   1.6297318e-01   6.1413651e-02  -8.3083027e-02  -1.6093433e-01   1.1456337e-01  -4.7007456e-02   2.3351655e-02  -1.1367136e-01   7.6639299e-02   1.2917307e-01   7.7875264e-02  -5.8752422e-03  -1.9663834e-02  -8.7129724e-03  -7.1409213e-02   5.9595629e-02   6.7278486e-02  -6.1849953e-02  -1.2024491e-04   5.3704129e-02  -1.5679997e-01   3.3051191e-02  -2.2117115e-01
   3.5878812e-02   1.8584564e-01  -6.5526838e-03  -1.3774852e-01   1.1294339e-01   2.2976534e-01   1.5786499e-02   4.3084808e-02   5.6068345e-02  -9.4667615e-02  -4.5893548e-02   3.2666562e-02  -2.1122042e-02   7.6091842e-01  -1.4714758e-01   2.0873650e-02   1.2364788e-01  -1.0948111e-02  -7.3859770e-02  -2.1633922e-01  -1.2379982e-01   4.0261894e-02   6.5220301e-02  -6.5928911e-03   7.5130623e-02   1.2645995e-01  -7.5698157e-02  -6.2286280e-02  -4.8114528e-02   2.8666883e-01   1.4967597e-01   3.5456853e-01   6.4127971e-02  -4.1369943e-02   8.9276316e-02  -1.4157360e-01   2.6245328e-01   1.0166362e-01   1.2713041e-02   3.9747541e-02   7.2514454e-04  -7.0112390e-02   1.8011585e-01  -8.1222905e-02  -4.7627362e-01   3.0115221e-01  -7.4586785e-02   2.2943853e-03  -5.2790593e-02   3.2694716e-02
  -7.7837615e-03  -1.2105691e-01   8.6914900e-03  -2.6716530e-01  -5.7804609e-02  -1.3478278e-01  -4.8399026e-02   2.5344164e-03   4.0404584e-01   8.0604334e-02  -1.9199498e-01  -1.3907574e-02  -1.1386586e-02   8.9838690e-02   7.6294516e-02  -2.9006595e-03  -5.6951127e-02  -5.2353404e-02  -3.0505350e-02   1.2798582e-01   4.1060006e-02   2.2495052e-01   2.7493968e-02   2.2606011e-02  -6.4044970e-02   4.1357322e-02   6.1634937e-02   4.0966151e-02   1.1559277e-01   1.7348994e-01  -1.0534981e-01   9.5958361e-02  -2.9948062e-02   1.1103521e-02  -2.5928758e-01  -3.5780148e-02   3.8281292e-03  -4.7733633e-02   5.3158807e-03   3.2418357e-01  -1.2422971e-02   1.6798559e-02   1.6173288e-01  -1.5030303e-02  -7.3798491e-03   2.2751519e-01  -1.6124034e-01   2.2841604e-01  -1.7259687e-02   4.1139966e-02
   5.0873010e-02   2.0811220e-01   6.0967910e-03  -1.2568934e-01  -3.3677292e-01   1.7830464e-01   1.1297103e-02  -4.3810115e-03  -1.0200130e-01  -6.9106983e-02   3.3715818e-02   1.1285150e-01   1.6927980e-01   2.4634593e-03  -7.6624722e-02   6.4352563e-02  -3.1807247e-03  -5.4280286e-02  -2.4296848e-02  -9.3437356e-02  -1.3514758e-01   1.5294393e-01  -4.0930860e-02   2.7409610e-01   5.7846044e-02   9.2921797e-02  -4.8320625e-02  -2.0664154e-01  -7.5437290e-02  -1.5768095e-01  -8.4233291e-02  -6.2776386e-02  -2.8682830e-02  -8.5140682e-02  -5.7444577e-02  -7.3416723e-02  -1.0981456e-01  -1.0381949e-01  -9.9506928e-04   5.8561980e-02  -1.1454941e-01  -2.8529940e-02  -9.3954090e-02   5.6029502e-02   1.3521559e-01   7.3341573e-02  -2.7912259e-02   6.0376344e-02   1.9654201e-01  -3.7805026e-02
  -2.6677452e-02   1.3359715e-01  -1.8495747e-03  -1.2100875e-01  -2.0439587e-02   6.3423820e-02   8.7433080e-02  -2.3374542e-02  -4.0241694e-03  -1.5728605e-02  -7.4897289e-02  -3.5977458e-02  -1.3280248e-01  -1.9644171e-01   5.1894432e-02   5.0268628e-02   1.6367922e-01   5.7808723e-02  -4.5481175e-03  -1.6391494e-01   2.5156653e-02   9.7784996e-02  -4.6958110e-02  -1.8808886e-01   3.4930218e-02   7.7007374e-02   6.4263597e-02  -1.1965818e-01  -1.3921324e-03   2.0404933e-01  -1.5863875e-03   6.2898150e-02  -7.6151219e-02  -4.5069878e-02   1.6805366e-01  -1.6735722e-01   1.3171462e-01   8.0707344e-02  -4.5620750e-03  -3.1032271e-01  -5.3374598e-02  -5.1280864e-03  -2.4561591e-02  -1.8267792e-02   8.1586459e-02  -1.1507711e-02   3.6267626e-02   7.3980452e-03   2.4096431e-01   5.1705291e-02
   2.8757490e-02  -1.0727947e-01  -4.1737984e-03   4.4749115e-02  -5.9221464e-01   1.3925295e-01   2.1912575e-01  -1.1815489e-02  -1.0865938e-01   8.9180257e-02  -1.8898831e-01  -4.4343958e-02   6.3310484e-02  -9.3387683e-04   2.8095062e-03  -7.2443571e-02   6.5591920e-02   6.8910121e-02  -2.5568612e-02  -2.8966554e-02   1.0342067e-01  -9.6840206e-02   2.0636199e-02  -2.2776144e-01   4.1012358e-02   2.8414696e-01  -6.2384711e-02   6.4718546e-02   5.0715846e-02  -1.1792425e-01   1.2995859e-01   3.1127295e-01   1.0214504e-02  -7.8332799e-02   4.9670960e-02   1.4322487e-01  -9.5140685e-02   1.4501827e-01  -4.0886465e-03   9.9770534e-02  -3.9294409e-02  -2.8127265e-02   1.7182920e-01   1.1674335e-01   1.4809066e-01   4.5414434e-04   4.0593050e-02   9.8959131e-02   1.8102003e-01   1.0160117e-01
   1.2624950e-02   2.4078408e-01  -3.4273838e-04  -3.3566710e-02   2.1334824e-01   5.2647071e-02   1.2673626e-01   6.6908929e-03  -6.5703078e-02  -1.3149406e-01  -7.4535780e-02  -2.9511138e-02   1.6435215e-01   7.3372606e-02   5.1813133e-03  -7.8940699e-02   9.8158005e-03   4.7337764e-03   4.9413579e-02   1.4739834e-02   1.8822178e-01   2.3267948e-01   8.3603285e-03  -5.8381558e-02   1.5626361e-01   2.3898129e-01  -1.1070133e-02  -7.1990126e-02  -4.2617957e-02   6.6652264e-02   5.4830999e-02   1.9951264e-01  -3.1467284e-02   4.8789712e-02  -4.1035637e-02   5.4351299e-03  -5.2069317e-02  -2.5531563e-01   5.6499850e-03  -7.9612247e-02   2.2319279e-02  -2.5561561e-01   1.8893684e-02  -6.1199177e-02   6.1570563e-02  -2.5100438e-01   9.4885764e-02  -1.4366366e-01  -5.2288177e-02   2.0730857e-01
  -2.0383508e-02   1.5210293e-02   4.4037078e-03   6.1985545e-02   2.4287024e-01   5.9555581e-02   7.9837764e-02   1.6001149e-02  -3.2815283e-02   5.4568501e-02  -8.5467161e-02  -2.4572181e-02  -3.3639347e-01  -1.0487491e-01   1.3099734e-01   8.8313255e-02  -5.0413726e-02   6.9882886e-02  -5.9037524e-03   1.5358456e-01  -8.7926863e-02   1.5262510e-01  -4.2613799e-02   2.5204806e-02  -1.4549136e-01   1.8234718e-01   2.2497500e-01   5.3174210e-02  -4.3263529e-02   1.1538113e-02  -6.1344679e-03  -9.8481963e-02  -1.8487219e-02   1.0575404e-02   1.1854228e-01  -9.0087148e-02   3.9931276e-02   1.5995594e-01  -1.0524056e-03   1.4370289e-01   6.4032770e-02   1.8047022e-01   9.1671607e-04   7.6157827e-02   1.6140497e-01  -1.0729950e-01   1.4829587e-02   2.1140273e-01   1.9054435e-01  -1.6908715e-02
   5.9312955e-02   2.1015782e-02   7.5187655e-03  -9.7645591e-02   1.6442207e-01   2.9895292e-01   1.7634097e-01  -3.3772267e-03  -1.9556616e-02   8.5444102e-02   4.9962127e-03   3.1140051e-02  -4.7210020e-02  -6.8704422e-02  -1.9082827e-01   3.5831621e-02  -6.8138201e-02   5.4526389e-02  -2.5533764e-02  -8.3008229e-02   2.1548327e-01   5.5617111e-02  -2.2506158e-02  -1.5427609e-01   6.6107387e-02  -3.7275877e-02  -1.2380334e-01   9.7337728e-02  -1.0602591e-01   1.0579591e-01  -3.7632395e-02  -1.7423596e-01  -7.8603108e-02   1.1185303e-02   1.7404382e-02   8.4937920e-02  -2.1235321e-02   8.4043740e-02   2.1201046e-04  -1.3265846e-01   8.4705867e-02   2.6293926e-02   3.6791549e-02   2.6197365e-02   1.9189590e-01   1.9323403e-01   1.7161847e-03   1.3652104e-01  -4.0082682e-02  -2.9726019e-02
  -1.0698380e-01  -3.7987226e-02  -3.5055037e-03   2.0162652e-02  -1.9209676e-01   9.9320198e-02   1.5416435e-01  -5.1581920e-04  -1.2566384e-01  -1.5522287e-02   1.9588304e-01  -3.8478146e-02  -3.2948267e-02  -1.0941633e-01   7.2014713e-02   7.3828278e-02   1.1775515e-01  -1.5851179e-01   7.0134570e-02   1.0549384e-02   2.1724683e-02   1.8011504e-01  -1.8516046e-02  -1.5253770e-01   1.1519171e-01  -2.5452390e-01  -1.5965469e-01  -5.9260389e-02   6.1134723e-02   1.4391074e-01  -6.2610874e-02  -4.6342148e-02   3.5300867e-02  -4.8213530e-02   2.5025704e-01  -8.2072775e-03  -7.2903248e-02   3.0637856e-01  -4.1481933e-03   2.0528835e-01  -4.5063831e-03  -1.3888721e-01   1.8771131e-01   8.3376387e-03   4.0165026e-02   3.5006886e-02  -1.0045284e-01   8.7170416e-02   4.0128092e-01   5.8176591e-02
   3.1942328e-02   3.2229661e-01  -6.6065354e-03   1.8255809e-01   7.6763412e-02   6.8198841e-02  -3.9070824e-02  -2.2818081e-02  -2.0071132e-01  -2.9174508e-02  -1.2964553e-02  -9.4987925e-02   1.3828467e-01  -5.2304465e-02  -3.0257387e-03  -2.1948129e-02   4.4607070e-02   1.1860423e-01   4.0315842e-02  -3.2678625e-02  -1.9716466e-02  -6.3069338e-02  -3.4782427e-02   2.4836458e-02   3.7775697e-03  -6.7170276e-02   2.1330914e-01  -2.4334312e-01   2.9830290e-03   4.8732154e-02   1.0847771e-01  -1.2268977e-01  -4.1481448e-02   1.4686070e-02   3.8065201e-02  -6.0848603e-02   2.5168738e-02   8.0993355e-02  -9.8085664e-03   1.0930832e-01  -1.6268463e-01   8.5384227e-02   4.1497642e-02   1.6368754e-01  -1.4539644e-01   6.8682900e-02   8.2271267e-02   1.6739116e-01   7.1201774e-02   7.4439359e-02
  -4.9199632e-02  -3.1586599e-01   3.2535640e-04   1.1293473e-01   3.0303329e-01   3.4416213e-01   1.0727281e-01  -1.5505418e-02   2.6945058e-01   2.2310855e-02  -4.3298684e-02   3.3389570e-02  -1.9840573e-02   8.2526519e-02   1.1779631e-01  -6.4734920e-02   6.7377382e-02  -1.3340962e-01   8.3227236e-03   2.6300653e-01  -3.4967431e-02   1.5112396e-01   5.1484225e-02  -1.4405563e-01   9.2488554e-02   9.4533124e-02   1.1336331e-01  -1.4491719e-01   7.6357964e-02   2.5185252e-01  -3.9808200e-02  -5.1955015e-02  -3.5858671e-03   2.0703073e-02  -2.1004264e-02  -1.9937995e-02   1.3741823e-01   1.6225702e-01   2.2019702e-03   9.6158907e-02  -1.0606880e-02  -6.4854984e-02  -4.8465622e-02   2.0713118e-01   3.5349622e-01   1.4323640e-01   4.4609945e-02  -1.2477497e-01  -1.7727017e-01   2.5712552e-02
  -3.9944747e-02  -2.8578437e-02  -2.1276028e-03   1.6937741e-01   2.9479952e-01  -2.3383827e-01   7.6016465e-02  -5.0584362e-03  -6.8131100e-02   6.2474693e-02   2.1164945e-01   2.8952918e-02  -7.5978439e-02  -2.4941349e-01  -1.0963288e-03   3.2350761e-02   1.2419607e-01   5.0976121e-02  -1.5822907e-02   1.9164119e-01  -5.1161186e-03   3.5575694e-01  -5.3127622e-02   4.9605317e-03   1.4174155e-01   6.6332287e-02  -9.0750858e-02   2.0655059e-01  -8.9568920e-02  -2.2460367e-01   2.9936180e-02  -9.6634927e-02   1.0114825e-01  -1.2153088e-01  -2.0582618e-01   1.4922786e-01  -4.7727713e-03  -2.3798648e-01   2.1294572e-03  -2.8039893e-01   3.4501803e-01  -2.9163250e-01   5.4041119e-02  -2.9928832e-02   4.1001622e-01   2.8437054e-01   6.2107008e-02   7.5324189e-02  -1.1121613e-03   2.1195378e-02
   1.7669502e-02   1.6085203e-01   1.4965291e-03   2.7447148e-02   1.8535037e-01   3.1646799e-01  -2.4209227e-01  -1.3625755e-02  -2.4417138e-02   2.0058699e-02  -7.5159601e-02  -4.0340393e-02  -3.2516934e-01  -4.0268746e-02   7.0397973e-03  -6.0891862e-03   1.6013097e-01   3.4458112e-02   8.7012203e-03   1.4105850e-01  -4.6269280e-03   1.2154532e-01  -5.1790015e-02  -1.0114256e-01   9.1886685e-02   8.8163714e-02  -3.7803325e-02   1.6832390e-01   1.3641117e-01   1.2639776e-01   8.6488920e-04   3.3245531e-02   4.1567752e-02   3.7913776e-02  -2.1974268e-02   1.2272097e-01   7.4909793e-02   1.5557368e-01   5.1375424e-03   1.6790869e-03  -1.1824978e-01   4.8945122e-04   6.2136386e-02  -1.7662846e-01   2.3147968e-01   2.2997034e-01  -8.1874548e-02   5.7417209e-02  -6.3325297e-02   1.6895161e-02
  -3.2020262e-02   2.3569357e-01  -7.2476159e-04   2.4303087e-02   2.9620988e-02   1.7418303e-01   1.5597679e-01  -1.3011536e-02  -1.8910496e-01  -8.1565832e-02  -1.3855880e-01  -1.4376844e-02   2.9204950e-01   5.4095734e-02  -1.4632649e-01   6.6665238e-02  -4.4937730e-02  -9.8197281e-02   2.8835650e-02   6.5814099e-02   4.5559062e-01  -1.1147008e-02   3.4703263e-02   1.5777218e-01  -2.1034633e-02   1.9346419e-01  -7.5542805e-02   1.9848287e-01   5.6554120e-02   5.5023563e-02  -1.0493142e-01  -2.7991460e-01  -5.6970736e-03   8.9886192e-02   5.2496008e-02  -7.8639638e-02  -2.9330400e-02  -1.7077580e-01   8.2955727e-03   2.2585582e-01  -1.2283937e-01  -1.3846021e-01  -2.5454291e-03  -1.5924959e-02  -8.6404784e-02   2.5594149e-01   4.6862361e-02  -2.3099732e-01   3.8245325e-02   2.2637607e-01
   3.1231202e-02  -1.1471343e-01   2.3900343e-03   1.5321392e-01  -6.0155558e-02   1.0040712e-01   1.0151063e-01  -3.3637956e-02   1.6252823e-01   9.2186196e-04   2.0852451e-01   5.9492209e-02   3.3555857e-02  -1.7445445e-01   3.0250513e-03  -8.2929899e-02   1.5616426e-01   1.3120588e-01   6.9080928e-03   4.6973220e-02   2.4614581e-01  -3.5150115e-02   7.1558195e-02   3.4993872e-01  -8.5962267e-02  -9.1550956e-02  -1.7017438e-02  -1.0608935e-01   3.8460245e-02  -1.4649912e-01   2.2107194e-02  -1.1785500e-02   3.6324186e-02   1.2973041e-02   1.0262844e-01   3.8319912e-02  -9.4320814e-02   6.0697563e-02  -6.2720439e-03   8.0389410e-02   3.7678286e-02   2.6330869e-01  -2.4023880e-01   1.7833389e-01   1.8969820e-01  -8.9448697e-02   5.6581448e-02   8.7782476e-02   2.8553583e-01   3.9970618e-04
   2.8485505e-03  -6.4581838e-03  -4.2384583e-03   1.0325324e-02  -4.9432521e-02   5.7069081e-02   8.4944670e-02  -1.2131825e-02   9.6880423e-02  -1.0503316e-02   1.8329250e-01   2.6378326e-02   2.4320959e-01  -1.3114006e-02  -6.5561822e-02   3.9859809e-02  -7.4281648e-02   3.5928029e-03  -5.7543372e-04  -2.2499899e-01   3.3541204e-02   2.6160674e-01  -7.9338570e-02  -4.1508914e-02   8.0309230e-02  -1.3285477e-01  -8.7754341e-03  -1.2519298e-01   3.8705157e-03  -2.1251308e-02   9.1870437e-02  -1.4950159e-01   7.4491551e-02   1.4821357e-02  -7.6796765e-02  -4.6708023e-03   1.3986993e-01  -1.0878938e-01   9.0662029e-03   1.6897611e-01   3.6240122e-01   6.8893039e-02   4.6312906e-02   1.6173988e-01  -4.1433986e-02   1.8123325e-01   1.1224184e-02   4.5819051e-02   1.5720545e-01  -6.9660231e-02
   5.1659245e-02   6.6614065e-02   2.0627683e-03   5.5348691e-02  -3.4014300e-01  -3.5484030e-02   8.9619767e-02   2.5696018e-02  -1.4062407e-02  -4.6429909e-03  -1.2581355e-02   7.0064313e-02   3.9954730e-02  -8.4974907e-03   7.8210885e-02  -2.1914209e-02  -1.1364227e-01  -3.9165767e-02   1.6714951e-03   6.5200018e-02  -4.6304084e-02   1.0023489e-01  -1.4450368e-02  -1.0927616e-01   8.0463866e-02   5.2495091e-02   3.1582317e-03  -1.1489859e-01  -1.4691231e-01   9.9458346e-02   9.7840239e-02  -2.7515799e-01  -2.5202946e-02   1.2712755e-01  -7.9139436e-02   1.4602371e-01   1.0604511e-01   3.2048280e-01   1.0292761e-02   1.6268662e-01   1.2065991e-01   7.8480464e-02   1.1955309e-01   1.6824707e-01  -6.5078459e-02   1.2400441e-01   1.0196832e-01  -6.1690642e-02   3.2075395e-01  -1.4605226e-02
  -1.4091142e-02  -1.8392703e-01   5.1169851e-04  -3.9520543e-02  -1.1887443e-01   1.9375160e-01  -3.4716962e-02  -2.1139892e-02   1.1530380e-01   3.4191013e-02  -1.4688697e-01   1.8852263e-02   1.7483877e-02  -2.1903070e-01  -1.1091560e-01   5.7726477e-02   6.2763097e-02   7.4363990e-02   2.0477058e-02   1.6897253e-01   3.3162291e-01  -2.3603391e-02   6.2783259e-02  -4.3429130e-02   8.9780310e-02   2.7219685e-02   4.7480821e-02   6.2617515e-02   1.2366335e-01  -1.2765124e-01  -1.0414793e-01   8.2048337e-02  -6.2392127e-02   6.0805949e-03   4.1783849e-03   5.2265790e-02  -5.7387424e-02  -1.4388740e-01   7.8545708e-03   2.0575500e-01   1.4132409e-01  -1.0009376e-01  -8.6663889e-02   1.2801302e-01   1.8431085e-02   4.2392384e-01   1.0298383e-02  -2.8137768e-02  -1.1691764e-01   1.9934765e-01
   2.9973192e-02   4.2221759e-01  -1.6392673e-03   4.6798910e-02   1.7015587e-01   2.0248499e-01   8.3359390e-02  -1.7939177e-02   3.1016208e-02   4.2891033e-02   1.6163794e-01  -2.1399907e-03   7.5265025e-02   7.5528696e-03  -1.4952354e-01   1.0632578e-01   6.7349900e-02  -1.2071148e-02   5.0057420e-02  -2.9238567e-04   3.3249295e-01   1.0271410e-01  -2.3101168e-02  -8.3708460e-02   2.0553847e-01  -8.8043628e-03   1.1046538e-01   2.8779334e-02   1.5535220e-01   1.4153095e-01   1.4228121e-01   4.1246970e-02  -8.8677750e-02   6.6380468e-02   1.6878255e-01  -1.5452551e-01  -2.6746576e-03   1.4726372e-01  -3.3888769e-03   1.0197195e-01   1.3346245e-01   2.8741203e-02  -3.5512457e-02   1.9842273e-02   2.0651295e-01   1.8329386e-01  -9.6266316e-03  -5.6859297e-02  -4.6230875e-02   9.9974765e-03
   2.8044651e-02   3.3080725e-01   2.4369167e-04   2.3509176e-01   3.9372883e-01   5.1577914e-02  -3.8978312e-02   2.9353317e-02  -1.5768375e-01  -3.2347369e-02   7.7502542e-02   3.1690357e-02   2.8918724e-02  -7.4130161e-02   1.5770436e-01   5.5966149e-02   2.8046562e-02   1.2260698e-01   1.2105658e-02   4.7213417e-02  -6.0500377e-02   1.6095317e-01  -3.2009948e-02   1.6891892e-01  -3.6805033e-01   9.9659138e-02  -3.3752417e-02   1.2980166e-01   1.2469913e-01   1.1358501e-02   4.6249063e-02   9.0560263e-02   4.2344317e-02   2.3907294e-02  -1.5476642e-01  -8.7699534e-02  -1.1958718e-01   1.0650438e-01  -1.4261324e-04  -8.5351035e-02  -9.5378721e-03   1.0971015e-02   5.2729456e-02  -1.5505460e-02   4.0460030e-01   3.1059822e-01   1.2722640e-01   2.9353791e-01   9.1062844e-03   1.8377680e-01
   2.2161709e-02  -9.6256476e-02   7.2767998e-03   2.7524225e-02   2.8407417e-01  -3.3220351e-02  -2.1689348e-01  -1.1426161e-02  -1.6930705e-01   5.1015776e-02   1.3456216e-01   3.3374676e-02  -6.7461893e-02   2.0670957e-01   6.0750101e-02   5.4196525e-02  -2.4621135e-02  -1.2511125e-01   2.2307120e-03  -2.7040697e-01  -3.5935944e-01  -2.4854955e-02   8.9021295e-02   3.1414560e-02  -1.4984356e-01  -4.0150753e-02   8.7666213e-02   5.6186256e-02  -4.5110175e-02  -1.0378260e-01  -6.4609102e-03  -3.7008250e-02   1.2571905e-03   2.3835856e-02  -2.3048751e-01   1.6759431e-01  -1.3393770e-02   1.6850694e-01   5.8240476e-03  -5.0543857e-02   6.4319534e-02  -1.5414290e-02  -1.2951598e-01   1.8205708e-01   9.3686692e-02   3.8139379e-01   5.3081231e-02   3.0304076e-01   2.6787897e-01   1.5603495e-01
  -3.8202751e-02  -1.4194769e-01   6.0930611e-03   7.4251509e-02  -4.1589444e-01   3.2904551e-01   1.6823249e-01   7.5651754e-03  -6.1939844e-02  -1.5869540e-01   2.8571434e-01  -5.2707715e-02  -2.9595282e-02  -1.1064905e-01   2.1632167e-01  -4.3555304e-02   1.1828821e-01   1.0590714e-01   2.8043021e-03  -7.0844074e-02  -8.1476590e-02  -1.9019791e-02   7.5134230e-02  -2.7117386e-01  -9.2345002e-02  -4.5549645e-02   8.6728765e-02   3.3554236e-01   4.4077001e-02   1.1343341e-01   7.7523233e-02  -1.7751883e-01  -1.7309291e-02  -8.8652119e-03  -8.2255156e-02  -7.1449690e-02   1.0756596e-01   4.5851583e-02   3.7446331e-03  -1.2060644e-01   2.0289977e-01   1.1734632e-01  -4.6611940e-02   2.3865089e-01  -6.8555723e-03  -1.4388942e-01   1.0276587e-02   3.0313637e-01   3.0417453e-01   8.5827286e-02
  -3.6214952e-02  -2.6904450e-02   1.8007983e-03   1.4945193e-01   5.3115211e-02  -1.4277042e-01   5.8392102e-03  -1.2124795e-02   3.4970564e-02   5.0238217e-02  -2.1472753e-02  -4.5931672e-02   9.7221621e-03   2.3041687e-02   7.0281378e-02  -2.6484945e-02   7.5730857e-02  -8.2369192e-02  -7.8062816e-03   1.3627251e-01  -1.8040418e-01   2.0401864e-01   9.0410347e-02   2.8613251e-01   4.9320783e-02   9.2717719e-02  -1.1999815e-01   1.9598351e-01   7.1412436e-02   1.8904777e-01   9.5500088e-02   1.6153390e-01  -3.3347573e-02   1.3460363e-01   3.7456965e-02  -1.9198481e-02   1.9402492e-01   1.1250869e-01   1.7746181e-03   3.4463922e-01   8.4354665e-02   8.4064893e-02   8.2536146e-02   3.1186308e-01   1.0455454e-01   5.0394648e-02   1.3376458e-01   3.1630470e-01   1.8091724e-01  -5.3845990e-02
   3.3847748e-02   2.7109829e-01   5.0800015e-03   1.1869122e-01   2.5141381e-01   6.3520268e-02   1.5905727e-01  -1.7964716e-02   2.0377262e-01   4.7006447e-03   3.2221740e-02   2.1517725e-02  -1.0980034e-01   1.4747272e-01   4.0996421e-02  -8.1073061e-02   7.0483419e-02   1.5608629e-01  -3.0639958e-02  -8.1943030e-02   7.0266831e-02  -6.1097421e-02  -2.3294582e-02  -8.0608329e-02  -1.1815631e-01  -6.6806459e-02   1.2555054e-01  -8.9182622e-02   2.7674878e-02   1.3634411e-01   1.1546160e-01  -1.1833678e-01   4.6762784e-02   5.2307556e-02  -2.3223466e-02  -1.5237785e-01  -2.3903551e-02   2.3599376e-01   3.4051496e-03  -1.6472180e-01   2.0206370e-01   1.4151611e-01  -4.0281838e-02   1.4661495e-01   3.4025647e-01  -3.3094428e-01   1.3036585e-01  -2.3296350e-02  -4.9211194e-03   1.5169725e-01
  -1.2923665e-02   2.6564309e-01  -1.3246355e-03   1.3670113e-01   1.8910897e-01   2.3125255e-01   6.8823894e-03  -1.5761561e-02  -6.4306868e-02   9.0955366e-02  -4.5844221e-03  -1.1886962e-02   1.1475216e-01  -4.6871196e-02   5.4689430e-02   5.7614244e-02   2.1945066e-03  -2.4693828e-02  -2.7379570e-02  -7.8483968e-03   1.1597965e-01   5.6638986e-02   2.8242032e-03  -1.5606110e-01   9.3015157e-02   6.6003337e-02   2.9227773e-02  -3.9347002e-02   1.7750454e-02   1.7657164e-01   3.7696057e-02   1.2667696e-01   5.3899367e-03  -3.6179838e-02   2.5526565e-01   1.1335866e-01   1.1702807e-01   2.2031940e-01   1.4644072e-03   1.2584669e-01   5.3353396e-02  -8.9236709e-02   1.3461372e-01   1.0559332e-01   8.9200221e-02   3.2896172e-01   8.9485510e-02   5.0752949e-01   5.2217723e-02   1.1898835e-01
   5.0794303e-02  -1.4986138e-01   3.4832396e-03   8.6260485e-02   2.6040778e-01   2.9721957e-01   2.2364122e-01   9.1610539e-03   2.7741065e-02   5.6741224e-02   1.0794505e-01   3.4670930e-03  -1.0543574e-01  -2.8588196e-01  -3.2425172e-02   4.2629736e-02   2.4096309e-02   5.2059828e-02  -2.3385115e-02   1.3627012e-02   1.9879372e-01  -5.7921168e-02   6.1347229e-02   3.7389184e-01   1.3249595e-01   1.6612717e-02   1.0900329e-01   3.3614236e-01   1.2067106e-01   2.8068136e-01   9.8910223e-02   8.0673572e-02  -1.0008886e-01   1.1729324e-01   3.9586924e-02   3.5580650e-01   1.3947122e-01   1.2182035e-01   1.3112761e-03   1.8505435e-01   4.7746790e-02   1.6522275e-01   3.4961455e-01   2.2805220e-01  -2.1899436e-01   2.5316953e-01   4.0718349e-02   1.5972994e-01   1.7746431e-01   1.3224310e-01
   5.4165685e-02  -1.8565244e-01  -6.0165431e-03   3.3437199e-02   1.6802330e-01  -1.4594226e-01   5.4882061e-02   2.7797979e-02  -2.6442809e-02  -5.6569056e-02   6.6266203e-02   9.6636665e-02   2.7245108e-01   2.7591906e-01   1.5690061e-02   3.1219040e-02  -7.3978978e-02   4.1516032e-02   2.1072800e-02   3.4862102e-01   5.1029799e-02   1.1252995e-01   1.6924585e-02   5.8201502e-02   1.9889544e-01   7.3627084e-02   9.6236983e-04   1.7917686e-01   5.3888161e-02   1.1998395e-01   6.4799668e-02   2.0085614e-01   1.4763434e-01  -1.1155870e-01   9.7205151e-02  -3.9766708e-03  -1.0514056e-02   4.3729767e-01   6.2755471e-03   1.4587207e-01   1.9796552e-01   1.4331247e-01   4.3895911e-01   6.2323378e-02  -1.1789966e-02   4.1529403e-01   1.4533895e-01   2.8689099e-01  -1.6052272e-02   1.7449809e-01
   3.9600352e-02  -3.9055787e-02   1.9593260e-03   1.6448514e-01   5.5785816e-01   2.6037440e-01   4.3392893e-02   2.3494205e-02   2.7407867e-01   2.3606516e-02   1.4854252e-01   7.2540343e-02   6.1367690e-02   2.5013946e-01  -3.7760794e-02  -4.0084107e-03   1.6329059e-03   5.2735150e-02   4.8449660e-02   2.3948759e-01   3.4605056e-01   1.9239268e-01   1.2234328e-01   2.1883136e-01   1.4845186e-01   1.7162207e-01   1.0554199e-01   1.6582354e-01   2.4714593e-02  -2.2769337e-01  -1.4463603e-02   2.4407360e-02  -1.2010386e-02  -1.9009938e-02   1.7143857e-01  -1.2003858e-01   3.2577601e-02   4.9487436e-01   3.9502416e-04   2.9393823e-01   2.7374646e-01   2.7978312e-01   2.9960802e-01   3.8992465e-02   1.4061061e-01   1.1831523e-01   8.8642527e-02   4.3427898e-01   1.5518651e-01   3.1235543e-02
   3.9191653e-02   7.8023518e-02   3.5072720e-03   2.4892574e-01  -1.4141035e-01   1.1670167e-01   2.2394067e-01   4.0898159e-02   2.3838636e-01   6.9118225e-02   4.4146638e-01   6.1824748e-02  -4.5927867e-02   2.6271299e-01   1.7367755e-01   9.9004504e-02   9.0218010e-02   8.8683376e-02   1.7612552e-02   1.0292579e-01   5.3269437e-01   1.3485896e-01   7.7006813e-02   2.1017365e-01   4.1204673e-01   2.1342156e-01  -1.7387016e-02   2.8655842e-01  -1.2723320e-01   6.6615978e-01   6.2359584e-02   3.2259515e-01   6.8154921e-02   2.0408451e-01  -2.2755713e-01   1.7825982e-01   2.7656704e-02   2.6943173e-01   9.3163802e-03   2.1121001e-01   2.3043999e-01   3.2388233e-01   2.9439686e-01   3.6656107e-01   1.4834166e-01   4.9826277e-01   4.4209170e-03   1.1580247e-01   3.8518445e-01   4.5126111e-02
   6.9779480e-02   1.9091936e-01   1.5826692e-02   1.3184464e-01   3.5651204e-01   2.3471754e-02  -1.4073218e-02   5.6460549e-02  -1.5211057e-01   1.2474057e-01   4.6151866e-01   7.3732216e-02   6.6582013e-02   3.1431949e-02   4.9590987e-02   6.7913917e-02   1.8894010e-01   1.7375304e-01   5.8055384e-02   1.8387190e-01  -6.4691592e-02   1.5715108e-01   4.2096892e-03   5.8186967e-02   2.2476898e-01   1.8198292e-01   3.1248744e-02   2.2488064e-01   1.3978280e-01   6.2727976e-02   7.4293241e-02   1.2121078e-01   7.5422597e-02   1.1821367e-01   1.0848973e-01  -6.8384828e-03   1.5453166e-01   5.1694683e-01   1.1752864e-02   7.6734987e-02   2.4556198e-01   1.1052250e-01   2.1454617e-01   2.7410878e-01  -1.0535470e-02   4.3976575e-01   2.5510695e-01   2.2288983e-01   3.6489508e-01   1.7269403e-01
   1.0414794e-01   4.0911799e-01   2.7070080e-03   1.3134663e-01   2.5834753e-01   2.3355708e-01   2.4793119e-01   3.3302282e-02   2.2236377e-01   1.4452525e-01   3.1127509e-01   8.7344215e-02  -4.5930105e-02   6.0890872e-02   2.1451561e-01   5.8547674e-02   1.2982740e-01   2.1220922e-01   4.4035448e-02   1.2924200e-01   1.9811918e-01  -1.4123719e-02   7.9033248e-02   5.0898165e-01   2.1658940e-01   1.0365908e-01   1.9461226e-01   2.6140958e-03  -3.6758373e-02   4.1595069e-01   9.6515877e-02   3.3211922e-01   7.6868853e-02   2.4147067e-02   4.7195492e-01   1.2276518e-01   1.7779001e-01   6.1332786e-02   9.3956664e-03   1.9583465e-01   2.2341430e-01   3.0713999e-01   4.1877372e-01   2.7017552e-01   2.5189430e-01   3.0384000e-01   1.5598227e-01   5.2778747e-01   3.8621822e-01   1.2763880e-01
   7.2777268e-02   4.9070386e-01   1.0539577e-02   2.3122426e-01   1.7726957e-01   4.4023930e-01   2.4415247e-01   2.8742825e-02   4.2792163e-01   1.4391495e-01   3.4120718e-01   9.6985429e-02   3.1305035e-01   4.7108560e-02   4.4638106e-02   1.5989924e-01   2.7588701e-01   2.1087453e-01   6.7993524e-02   4.1926038e-01   4.3901553e-01   3.4563688e-01   4.6280778e-02   1.3249549e-01   1.7582096e-01   2.0156485e-01   2.4382330e-01   3.1755568e-01   1.8363357e-01   3.5889122e-01   6.7265522e-02   5.0930739e-01   7.3630799e-02   2.1910622e-02   2.9907154e-01   3.1685271e-01   5.7231327e-02  -1.2507226e-01   1.4074069e-02   5.1486894e-01   2.6933155e-01   1.3916970e-01   3.1173339e-01   4.0930780e-01   2.0047329e-01   4.9726114e-01   1.4326520e-01   2.0034419e-01   3.6402267e-01   2.6525040e-01
   1.6719677e-02   4.1945640e-01   5.0189859e-03   2.0574194e-01   2.5145895e-01   3.9010064e-01   1.8855905e-01   4.1964347e-02   9.9915552e-02   1.4505918e-01   2.6412701e-01  -7.6749992e-03   2.0471622e-01   4.1246457e-01   1.9979748e-01   1.6084810e-01   2.7917672e-01   2.2715905e-01   1.5592913e-02   6.9623954e-01   2.0377981e-01   4.1190268e-01   7.5722565e-02   3.0159907e-01   2.5006262e-01   3.1791817e-01   2.3001412e-01   3.0205226e-01   1.9119622e-01   2.5242120e-01   1.9394523e-01   3.5841727e-01   3.2299795e-02   7.3124286e-02   1.9728344e-01   2.3329924e-01   7.1976625e-02   2.5896078e-01   7.8772108e-03   3.7488531e-01   3.6260026e-01   2.4871495e-01   4.5468376e-01   4.6050450e-01   5.6038333e-01   1.4033907e-01   3.0404640e-01   2.5252524e-01   3.8642323e-01   2.9660252e-01
   1.0856606e-01   5.2458091e-01   1.7864717e-02   1.2206884e-01   4.6431674e-01   2.2307994e-01   2.1994221e-01   2.7449876e-02   4.1187455e-01   1.0415468e-01   2.6069118e-01   1.0897020e-01   1.0994586e-01   5.6856713e-01   2.9174220e-01   6.5697265e-03   1.0443815e-01   2.1704182e-01   7.4743869e-02   1.7340969e-01   2.3260991e-01   4.6473657e-01   1.2809852e-01   4.3262112e-01   3.6149722e-01   1.6436993e-01   8.9687917e-02   3.2731029e-01   2.8078728e-01   5.7476188e-01   1.2569338e-01   3.7954500e-01   7.4014951e-02   2.3788075e-01   2.5370576e-01   2.4083181e-01   2.6914233e-01   9.3853162e-01   9.4379317e-03   5.5702607e-01   8.8431536e-02   2.1874181e-01   4.9658477e-01   4.1317977e-01   8.0000837e-01   3.0271845e-01   2.0055198e-01   3.7975531e-01   4.8391173e-01   1.9698355e-01
   5.6654028e-02   3.2386412e-01   7.8724216e-03   3.1168362e-01   4.4559547e-01   2.3817129e-01   1.3744888e-01   3.6282804e-02   6.4588407e-01   1.8427508e-01   4.3295075e-01   3.8220636e-02   2.0624327e-01   6.2510834e-01   3.1358661e-01   1.4477814e-01   2.6997292e-01   8.5388979e-02   5.6179395e-02   3.2806886e-01   6.5812875e-01   2.5299001e-01   1.5877937e-01   5.7424016e-01   4.0685364e-01   2.9350334e-01   3.1954808e-01   4.1878383e-01   3.1453528e-01   6.2674153e-01   1.6348456e-01   5.6140595e-01   1.2836053e-01   2.5696640e-01   2.9689424e-01   3.4420553e-01   1.3944418e-01   4.7413683e-01   1.6456075e-02   2.7794069e-01   3.1205172e-01   5.4282356e-01   6.4725230e-01   3.0010854e-01   7.6731296e-01   5.9313689e-01   1.9325048e-01   6.6209756e-01   5.3135740e-01   1.2422413e-01
   8.3232011e-02   4.5363051e-01   1.5603799e-03   1.4653696e-01   3.7999780e-01   3.9877230e-01   4.2138307e-01   6.1095615e-02   3.1619303e-01   1.5037450e-01   5.9369277e-01   1.0571120e-01   4.2527234e-01   8.6872240e-01   2.3029117e-01   2.1974115e-01   1.3625780e-01   2.8629709e-01   9.3199922e-02   5.7086718e-01   2.5758895e-01   9.6763174e-02   2.3428040e-01   1.9542466e-01   3.8518067e-01   3.5084145e-01   2.9644342e-01   3.1289537e-01   1.7759475e-01   8.6078079e-01   1.2145954e-01   2.8512942e-01   1.8844691e-01   1.4777812e-01   3.5342820e-01   2.6537867e-01   2.8023529e-01   5.3907097e-01   8.2277148e-03   3.3376991e-01   4.2056491e-01   6.7199194e-01   4.4864668e-01   3.7084353e-01   7.1417065e-01   9.9497786e-01   2.2713996e-01   7.0890666e-01   3.8429987e-01   4.1104107e-01
   1.5119810e-01   5.4671027e-01   1.3483139e-02   3.8327716e-01   5.4749995e-01   4.9700367e-01   4.1789911e-01   4.7282934e-02   2.2827154e-01   1.2975672e-01   4.7948649e-01   2.7073613e-01   3.0588237e-01   2.8742783e-01   3.6805659e-01   2.0287324e-01   2.7258971e-01   1.9731536e-01   7.2909573e-02   5.6783527e-01   5.7617756e-01   2.7911581e-01   2.4628698e-01   5.3303336e-01   4.7699992e-01   1.7164977e-01   2.6124412e-01   5.2696631e-01   7.1982078e-02   6.8497046e-01   3.7223163e-01   3.3229427e-01   1.1620516e-01   3.1239724e-01   3.6054249e-01   4.0512172e-01   2.1738052e-01   6.2228812e-01   1.3344641e-02   4.1586782e-01   3.3658529e-01   8.4550968e-01   6.0550598e-01   3.5012461e-01   4.8719094e-01   6.8631532e-01   2.8474720e-01   4.2615786e-01   3.8161861e-01   4.7532197e-01
   9.6466288e-02   5.9056225e-01   1.8989345e-02   4.1230766e-01   7.6445910e-01   4.5722154e-01   3.8496309e-01   7.5532108e-02   7.1021683e-01   2.6034944e-01   4.8821161e-01   2.2923883e-01   5.2142055e-01   4.8017109e-01   3.7592671e-01   2.1786114e-01   2.1315637e-01   2.3852257e-01   1.2506844e-01   5.3256412e-01   4.7565631e-01   6.1607265e-01   2.7557623e-01   6.6777774e-01   2.5449077e-01   5.2443882e-01   2.5688925e-01   5.9690266e-01   6.3510183e-02   4.2917947e-01   2.3201135e-01   5.2981328e-01   1.4557579e-01   2.8790011e-01   3.2720203e-01   3.0139305e-01   5.9585352e-01   5.7059212e-01   1.7750246e-02   6.0913703e-01   5.0465786e-01   5.9247322e-01   7.7005216e-01   5.7584422e-01   8.0201012e-01   6.4174592e-01   3.8125771e-01   7.4109368e-01   6.3687845e-01   3.7061087e-01
   1.3498406e-01   8.5058687e-01   1.4039585e-02   3.0809549e-01   7.1142000e-01   3.1618308e-01   4.0256502e-01   5.3155892e-02   6.8513582e-01   1.7865749e-01   8.6330910e-01   1.6200551e-01   3.8415133e-01   4.5258649e-01   3.0927923e-01   2.3778654e-01   1.7604643e-01   3.7208640e-01   1.4749235e-01   5.4973277e-01   4.4078735e-01   3.9678837e-01   1.9073759e-01   6.8170758e-01   5.5384961e-01   6.0375234e-01   2.8647938e-01   4.9282384e-01   1.7932389e-01   7.8239815e-01   3.7915772e-01   6.2406051e-01   1.3014116e-01   2.7863561e-01   5.0138918e-01   2.5963199e-01   1.7106474e-01   5.9556508e-01   1.0917085e-02   5.9678035e-01   3.9435866e-01   8.1052216e-01   5.0981393e-01   4.6687671e-01   7.7266806e-01   8.5757300e-01   1.5030972e-01   7.2219132e-01   5.1135094e-01   6.5723626e-01
   1.1355550e-01   5.3683855e-01   1.2148242e-02   5.2880982e-01   4.8428421e-01   3.5299792e-01   3.7024114e-01   6.3512109e-02   4.3016244e-01   1.9285885e-01   5.1219498e-01   1.7064940e-01   4.4799806e-01   7.4436861e-01   3.9784983e-01   2.3732845e-01   3.5369280e-01   2.7833514e-01   6.3261963e-02   5.0529697e-01   5.4407123e-01   3.8369148e-01   3.5858357e-01   7.1457426e-01   4.9156263e-01   6.2403582e-01   3.1368799e-01   4.9077920e-01   3.6174644e-01   7.4479870e-01   2.4723884e-01   5.9407829e-01   1.1761234e-01   3.2141867e-01   3.6696227e-01   4.0407107e-01   5.2479943e-01   5.3059213e-01   1.5814092e-02   6.4624528e-01   6.2825100e-01   8.1449415e-01   6.2768066e-01   4.4608874e-01   8.4934911e-01   7.7811527e-01   2.9961541e-01   5.4407976e-01   7.0116675e-01   5.9321486e-01
   2.1669168e-01   6.9654976e-01   2.2736047e-02   4.6573587e-01   7.0708561e-01   5.8285081e-01   2.6894986e-01   5.6645783e-02   7.0882693e-01   1.8251097e-01   3.5830821e-01   1.9995823e-01   6.6287363e-01   6.6377847e-01   3.9909889e-01   1.2236464e-01   4.6727699e-01   2.3499285e-01   1.1398948e-01   6.9210115e-01   6.1689281e-01   6.4183250e-01   2.0631147e-01   3.8539178e-01   4.3973945e-01   2.4926988e-01   4.1057441e-01   4.1876353e-01   4.0107911e-01   6.1364497e-01   3.4168988e-01   5.8433850e-01   1.9029801e-01   4.2164207e-01   5.6707758e-01   5.9895963e-01   2.4317240e-01   6.9588885e-01   1.8053725e-02   4.1066584e-01   5.3176135e-01   7.2995439e-01   5.3819860e-01   7.8316498e-01   6.4987656e-01   8.5169837e-01   2.8726919e-01   8.5297670e-01   5.6795246e-01   3.1075388e-01
   1.5834819e-01   8.0806324e-01   1.5742918e-02   5.2190870e-01   8.0124903e-01   3.1704983e-01   6.4989991e-01   7.4162179e-02   8.8840434e-01   1.8649890e-01   8.5024725e-01   2.6813427e-01   5.1624836e-01   5.7479669e-01   4.4500942e-01   1.6670415e-01   4.4843033e-01   3.3478405e-01   1.4774423e-01   6.2105304e-01   3.5305892e-01   9.1330867e-01   2.3554639e-01   6.0523235e-01   6.5749123e-01   4.0069388e-01   2.8963088e-01   4.8616618e-01   3.1414476e-01   6.2078177e-01   2.4371630e-01   8.6722674e-01   2.4028961e-01   3.4154575e-01   6.9934421e-01   5.2238521e-01   5.5794644e-01   6.9978225e-01   1.7419934e-02   8.4492436e-01   4.2091190e-01   8.5621808e-01   5.2924762e-01   5.1479994e-01   6.6139056e-01   1.0788132e+00   2.9178132e-01   7.9377918e-01   8.2697234e-01   6.1346563e-01
   1.9601305e-01   9.4900457e-01   2.4369208e-02   3.7946694e-01   1.0055889e+00   6.2891012e-01   5.0153038e-01   6.9460032e-02   8.7168076e-01   2.2235783e-01   8.4351723e-01   1.9055011e-01   3.4848532e-01   4.6037807e-01   3.3873069e-01   2.4611074e-01   5.1602051e-01   3.2034329e-01   1.4757082e-01   6.9384664e-01   8.6269856e-01   8.2501892e-01   2.3305364e-01   8.8183856e-01   8.0213024e-01   5.2229748e-01   2.0384520e-01   5.4600425e-01   3.0320722e-01   6.4708041e-01   5.3646812e-01   8.9756215e-01   2.2360247e-01   2.7058280e-01   6.2311058e-01   5.9509925e-01   5.6590780e-01   9.8316184e-01   2.0209628e-02   6.9651288e-01   8.2113173e-01   9.6552528e-01   9.1955216e-01   5.4098079e-01   1.2382918e+00   1.1649974e+00   4.2579333e-01   1.0316822e+00   8.5603513e-01   6.9764326e-01
   2.1704670e-01   1.0412488e+00   2.3369876e-02   5.6747836e-01   7.1961208e-01   7.8093312e-01   5.9655909e-01   7.0555247e-02   8.2201031e-01   2.4211278e-01   7.6165584e-01   3.2804913e-01   5.3734530e-01   4.7075516e-01   4.8003550e-01   2.2587821e-01   4.8081840e-01   2.6406603e-01   1.1974595e-01   7.8563110e-01   1.0219322e+00   7.4913259e-01   3.0441187e-01   9.6964036e-01   1.9897604e-01   5.2530163e-01   4.1673814e-01   7.2727033e-01   4.6920231e-01   9.1779409e-01   4.6117341e-01   9.7024336e-01   2.7581486e-01   4.7886665e-01   7.5785252e-01   5.9969858e-01   4.9689652e-01   7.7802584e-01   2.6514571e-02   7.5543581e-01   6.8258888e-01   1.0641589e+00   7.7507828e-01   6.4922374e-01   6.9174840e-01   9.6550116e-01   4.2809957e-01   1.0376191e+00   9.7963792e-01   6.0737690e-01
   1.8265625e-01   7.4548463e-01   1.4873708e-02   8.1605078e-01   9.4155331e-01   5.3493453e-01   3.9315070e-01   6.5719199e-02   1.0981480e+00   2.3702159e-01   7.1636793e-01   2.3426737e-01   5.1390493e-01   6.0043491e-01   4.0210047e-01   1.8574158e-01   4.3507747e-01   3.1555557e-01   1.9787941e-01   6.9038001e-01   9.4802183e-01   6.6139790e-01   2.2016181e-01   8.7572200e-01   6.5532088e-01   6.8418628e-01   5.8143229e-01   7.8164171e-01   5.8355615e-01   9.4756614e-01   3.6303283e-01   9.0719881e-01   1.8105938e-01   1.9992150e-01   3.2751190e-01   5.5833660e-01   7.5757653e-01   9.1896316e-01   1.8188516e-02   6.5445309e-01   5.1736273e-01   1.1228607e+00   7.0442002e-01   9.3178480e-01   9.5781013e-01   9.2748373e-01   4.3723346e-01   1.1386097e+00   1.0688329e+00   5.9037750e-01
   2.3444396e-01   1.0346582e+00   2.4023270e-02   8.0493657e-01   6.5529147e-01   7.3317498e-01   5.0209172e-01   1.0774126e-01   1.0045189e+00   3.0400260e-01   6.8031308e-01   2.6533760e-01   7.4542402e-01   8.2608869e-01   4.3557473e-01   2.1356519e-01   3.7731413e-01   4.3658594e-01   1.6352459e-01   8.1023529e-01   9.9107531e-01   6.5112440e-01   3.5936317e-01   8.9016528e-01   3.5789394e-01   5.9583708e-01   3.7311618e-01   5.4861354e-01   4.1252482e-01   8.5327325e-01   2.9583914e-01   6.3250878e-01   1.4358152e-01   4.3889370e-01   5.1620893e-01   6.5775213e-01   6.7173445e-01   8.6026462e-01   2.8831696e-02   9.1161394e-01   8.1583981e-01   9.6607193e-01   9.5603876e-01   6.4058482e-01   1.0193921e+00   1.0508660e+00   5.0277187e-01   1.1166234e+00   1.1231981e+00   6.3180235e-01
   2.7433182e-01   9.5983596e-01   1.9464983e-02   9.1586162e-01   7.8515147e-01   5.9126785e-01   7.0919627e-01   9.0790306e-02   9.8983694e-01   2.4754944e-01   7.5180570e-01   3.0898288e-01   8.5844245e-01   6.8854096e-01   3.7622383e-01   2.5745712e-01   3.5116842e-01   4.7827071e-01   1.2253949e-01   6.5209483e-01   1.0026494e+00   4.8584776e-01   2.4956186e-01   7.2872751e-01   6.8925143e-01   5.3872188e-01   5.6169166e-01   8.5204531e-01   4.9848116e-01   5.5067527e-01   4.2660509e-01   8.9253513e-01   2.5773888e-01   3.5075948e-01   7.9725255e-01   8.8159470e-01   6.0810002e-01   1.0349517e+00   3.5101371e-02   1.0593837e+00   9.7118234e-01   9.3893101e-01   9.0459327e-01   8.1108979e-01   1.1553923e+00   1.1344642e+00   4.0106288e-01   1.2029786e+00   8.5374199e-01   6.3441514e-01
   2.3958355e-01   7.0994442e-01   2.5983273e-02   7.7945671e-01   1.1347242e+00   8.5126927e-01   6.9786180e-01   9.6981845e-02   1.1813662e+00   3.1782618e-01   8.6789314e-01   3.9321347e-01   4.7007632e-01   7.4548140e-01   6.7417385e-01   2.9828732e-01   4.8349114e-01   3.7720800e-01   1.3796692e-01   7.9557869e-01   1.2367010e+00   5.9300941e-01   3.0133919e-01   1.0736936e+00   6.2315382e-01   6.8814923e-01   7.1483975e-01   6.5860223e-01   5.9953194e-01   1.1416049e+00   2.4931028e-01   1.0152582e+00   2.8715604e-01   4.3194961e-01   9.4182688e-01   3.8557690e-01   4.4831266e-01   1.1744290e+00   2.8968735e-02   8.4764296e-01   9.7858782e-01   1.1496306e+00   9.4493541e-01   5.6459330e-01   1.4184025e+00   1.0119681e+00   4.2692025e-01   1.0860492e+00   9.1600832e-01   5.5825372e-01
   1.5871656e-01   7.1237810e-01   2.7313084e-02   7.1484774e-01   9.3882421e-01   9.4777262e-01   6.8015464e-01   1.0235253e-01   8.8841868e-01   3.0959670e-01   1.0519300e+00   2.9243707e-01   9.3995117e-01   1.0914583e+00   4.7874449e-01   4.1173880e-01   3.8136313e-01   4.6792573e-01   2.0843307e-01   8.3679880e-01   1.0428211e+00   8.2250965e-01   3.9159102e-01   8.9396533e-01   6.1682497e-01   6.9348666e-01   4.8944545e-01   7.9486011e-01   4.0072085e-01   1.1633708e+00   5.1597643e-01   9.7685972e-01   2.3233460e-01   4.4004586e-01   6.2341175e-01   6.9384166e-01   7.1410454e-01   8.4754860e-01   2.4513856e-02   6.5153331e-01   6.2663462e-01   1.0428058e+00   9.1550783e-01   9.2787752e-01   1.4605849e+00   1.0698817e+00   4.4227227e-01   1.3497968e+00   1.0479594e+00   6.7251851e-01
   2.1623192e-01   8.7392236e-01   3.0998073e-02   6.6651383e-01   1.1757779e+00   8.8337208e-01   6.5408542e-01   9.8510647e-02   1.3295556e+00   3.9043771e-01   1.2445887e+00   2.5939329e-01   7.8208905e-01   1.2137331e+00   7.9400603e-01   3.0060149e-01   5.9678632e-01   4.7213757e-01   1.6490286e-01   9.4983002e-01   1.1877461e+00   9.5814661e-01   4.5955261e-01   1.1426090e+00   8.2393710e-01   9.5177589e-01   5.8937330e-01   9.2979730e-01   4.8990798e-01   1.0441878e+00   7.1913566e-01   7.9758720e-01   3.0736403e-01   5.2770742e-01   8.0266172e-01   7.0291903e-01   5.5226294e-01   1.5909169e+00   3.0227367e-02   9.4023538e-01   8.2264504e-01   1.1621758e+00   1.1869728e+00   8.4644012e-01   1.2213041e+00   1.3815683e+00   6.2632636e-01   1.4468836e+00   8.8539758e-01   6.1004591e-01
   2.2022919e-01   9.7610113e-01   3.6700508e-02   1.0154204e+00   1.0498075e+00   6.9104476e-01   7.9434198e-01   8.8091779e-02   1.3415258e+00   3.7689399e-01   1.0037613e+00   3.3388382e-01   6.7638069e-01   9.9390664e-01   5.0587123e-01   2.9404428e-01   6.5654653e-01   5.8864586e-01   2.1061382e-01   7.8949072e-01   1.1385348e+00   9.1517294e-01   4.4418549e-01   1.0939693e+00   7.8214622e-01   6.8048838e-01   6.1399127e-01   9.4316243e-01   6.3834952e-01   1.0633064e+00   6.3567357e-01   8.7766746e-01   2.5518308e-01   5.3342249e-01   5.7823550e-01   8.3682109e-01   7.1031510e-01   1.2048436e+00   3.2661038e-02   1.2101827e+00   1.0064286e+00   1.4366326e+00   1.0528965e+00   8.7215587e-01   1.3408529e+00   1.3095487e+00   5.5988792e-01   1.5015910e+00   9.9151303e-01   6.6136679e-01
   3.1462752e-01   7.6367971e-01   3.6658028e-02   6.5706160e-01   1.1707633e+00   7.7173819e-01   7.1457570e-01   9.3315017e-02   9.4272274e-01   4.2767231e-01   1.1202545e+00   3.8592624e-01   6.6423467e-01   1.0303637e+00   7.0983891e-01   2.9594863e-01   6.5349682e-01   4.8949812e-01   1.9185073e-01   8.6023240e-01   1.1317562e+00   1.0090479e+00   5.1716288e-01   1.0714924e+00   6.7828843e-01   8.7919230e-01   4.3441427e-01   9.7475132e-01   5.6177580e-01   1.1592778e+00   5.5167299e-01   1.0330530e+00   2.7820462e-01   6.2534398e-01   7.3483787e-01   8.3113877e-01   9.3456312e-01   1.3877015e+00   2.7250565e-02   1.0373530e+00   8.8774880e-01   1.0604677e+00   1.1151013e+00   8.5255349e-01   1.5556171e+00   1.3242377e+00   5.8519075e-01   1.1616930e+00   1.1761204e+00   8.8111513e-01
   3.2045175e-01   1.0887845e+00   2.5765812e-02   7.5532260e-01   1.2863405e+00   9.4948144e-01   9.4719421e-01   1.1265007e-01   1.0558997e+00   3.6444191e-01   1.0866950e+00   3.1526112e-01   8.3700484e-01   1.2044415e+00   5.1468881e-01   2.8198003e-01   7.4836079e-01   7.5292183e-01   2.1971209e-01   1.1073092e+00   1.3040615e+00   8.0351028e-01   4.2922430e-01   1.1237393e+00   7.8595462e-01   1.0318365e+00   6.8491144e-01   9.0880996e-01   6.6343779e-01   9.1212688e-01   6.7052810e-01   1.0688405e+00   2.8900663e-01   5.9537433e-01   1.0698833e+00   7.9512972e-01   7.1758904e-01   1.1383628e+00   2.8539159e-02   1.1010284e+00   7.3889373e-01   1.3057090e+00   9.6825320e-01   1.1258082e+00   1.5695684e+00   1.3301822e+00   6.1208419e-01   1.4563580e+00   1.1844513e+00   1.0393044e+00
   2.7564543e-01   1.1300228e+00   2.6720518e-02   9.6108441e-01   9.8016148e-01   9.7631375e-01   8.9175129e-01   1.2414336e-01   1.0008409e+00   3.4904364e-01   1.0939927e+00   3.0382415e-01   9.1279455e-01   1.0528090e+00   7.8921743e-01   3.3734991e-01   6.0990767e-01   4.2823465e-01   2.0268182e-01   1.0310941e+00   1.0634643e+00   9.0441904e-01   2.5164973e-01   8.9701312e-01   8.6611143e-01   6.8463247e-01   7.0820181e-01   8.9123686e-01   5.6794004e-01   1.4559069e+00   5.7380166e-01   1.3314161e+00   3.3074482e-01   5.7746666e-01   9.7386286e-01   9.7151731e-01   7.8627095e-01   1.3652027e+00   3.8000172e-02   1.2131609e+00   9.2213238e-01   1.3700606e+00   1.0867340e+00   9.6877130e-01   1.9584466e+00   1.0403423e+00   6.1597170e-01   1.4326747e+00   1.3084889e+00   9.1046083e-01
   3.0458665e-01   9.1597824e-01   3.0055376e-02   7.1343145e-01   1.3766501e+00   1.0507554e+00   1.0842319e+00   1.1028335e-01   1.5420821e+00   4.5684359e-01   1.2991550e+00   3.9334335e-01   7.2597652e-01   1.0306670e+00   8.0123402e-01   3.4673531e-01   6.6520363e-01   6.6678930e-01   2.4422588e-01   9.7413547e-01   1.2500551e+00   9.2003901e-01   4.9522689e-01   1.0329978e+00   7.7836505e-01   9.0345110e-01   7.5145453e-01   1.0203892e+00   6.4843714e-01   1.6161995e+00   5.5866818e-01   1.2506044e+00   2.9988628e-01   5.2075383e-01   1.0051080e+00   8.6291144e-01   1.1072510e+00   1.1468156e+00   2.8939916e-02   1.2444008e+00   9.9444605e-01   1.6233828e+00   1.2378117e+00   1.0471420e+00   1.9423228e+00   1.3979728e+00   6.1453585e-01   1.4679574e+00   1.3098073e+00   8.9265593e-01
   3.1006108e-01   1.2266451e+00   3.1917062e-02   7.5559830e-01   1.2489863e+00   8.2361220e-01   8.2144365e-01   1.1266590e-01   1.2607284e+00   4.7310857e-01   1.4447154e+00   3.9591158e-01   6.9575679e-01   1.2252524e+00   5.9712449e-01   3.7662438e-01   7.2250845e-01   6.2567855e-01   2.4512424e-01   1.2580312e+00   1.2803570e+00   1.0568959e+00   4.5705475e-01   1.2828328e+00   8.6956319e-01   1.1388673e+00   8.1412185e-01   1.0115734e+00   6.7538123e-01   1.3694945e+00   6.2374387e-01   1.2161984e+00   3.4891507e-01   4.9030315e-01   1.0282221e+00   1.2019694e+00   7.9132136e-01   1.4166916e+00   4.0295680e-02   1.0600332e+00   1.1290781e+00   1.1947229e+00   1.0840004e+00   1.1364214e+00   1.5447145e+00   1.5870548e+00   5.3102249e-01   1.4260486e+00   1.2299802e+00   1.0707799e+00
   2.7353595e-01   1.3858546e+00   3.5038280e-02   9.2697317e-01   1.3208729e+00   8.5246579e-01   1.0410490e+00   1.6941773e-01   9.0032887e-01   3.6846953e-01   1.2807059e+00   4.8942050e-01   1.0574133e+00   1.4538628e+00   8.1921881e-01   4.3173269e-01   7.0917791e-01   6.8120907e-01   1.9323448e-01   1.0136445e+00   1.1775610e+00   1.2062617e+00   4.6962239e-01   1.2391204e+00   1.0334206e+00   1.0304060e+00   8.7793343e-01   1.1131377e+00   7.0881534e-01   9.7950549e-01   6.3051058e-01   9.7515212e-01   2.6051962e-01   5.4721526e-01   8.8979085e-01   1.0185888e+00   1.0299333e+00   1.4536571e+00   3.5727969e-02   1.0323502e+00   1.0084298e+00   1.7063302e+00   9.4018520e-01   1.1603785e+00   1.5144168e+00   1.6183918e+00   5.9027034e-01   1.4806941e+00   1.2589330e+00   8.4214542e-01
   2.7929578e-01   1.2606329e+00   3.9013084e-02   9.5524307e-01   1.4814014e+00   1.3563259e+00   7.9993069e-01   1.5444661e-01   1.4623169e+00   5.2676221e-01   1.2684322e+00   4.6964233e-01   8.8522083e-01   1.7352585e+00   7.2363971e-01   3.8893552e-01   7.1797433e-01   8.8127574e-01   2.0940365e-01   1.3163733e+00   1.5433920e+00   1.1361749e+00   4.8730770e-01   1.7746510e+00   1.0241161e+00   8.7196528e-01   7.1211925e-01   9.6812962e-01   8.1305073e-01   1.2067832e+00   6.6862753e-01   1.1496642e+00   3.3226117e-01   6.0291227e-01   1.1932843e+00   8.0546607e-01   8.3136066e-01   1.7298373e+00   3.6863485e-02   9.3715471e-01   8.9326937e-01   1.3253175e+00   1.0259199e+00   1.0879871e+00   1.9263148e+00   1.3469804e+00   5.2920582e-01   1.7613025e+00   1.2689688e+00   8.0313098e-01
   2.8490922e-01   9.7741279e-01   3.0409671e-02   8.5386240e-01   1.7960789e+00   1.2779254e+00   9.9066187e-01   1.1683515e-01   1.5913514e+00   3.2336410e-01   1.5609361e+00   4.0515805e-01   1.0283261e+00   1.5407405e+00   1.0293663e+00   3.8444555e-01   8.7504228e-01   8.3536609e-01   2.3858870e-01   1.1625230e+00   1.4001017e+00   1.1253608e+00   3.9967033e-01   1.2794095e+00   1.2413243e+00   1.1115162e+00   8.0574991e-01   1.3563213e+00   6.7372806e-01   1.3500330e+00   7.0494420e-01   1.3520115e+00   2.7416071e-01   5.6883101e-01   1.0729870e+00   1.0649457e+00   1.0169169e+00   1.6967847e+00   4.1271687e-02   1.0253942e+00   1.0033187e+00   1.4845078e+00   1.3782441e+00   1.1940947e+00   1.8705308e+00   1.6666253e+00   6.5508553e-01   1.6345844e+00   1.4645972e+00   7.1260836e-01
   3.7965425e-01   1.7452356e+00   3.4025209e-02   1.0655279e+00   1.8310372e+00   9.0078178e-01   9.0666828e-01   1.4155250e-01   1.7066384e+00   5.3250341e-01   1.2898220e+00   5.5315054e-01   8.5226957e-01   1.5296632e+00   7.8552550e-01   3.9297724e-01   5.9410571e-01   6.9476175e-01   2.6669337e-01   1.3449114e+00   1.6518936e+00   1.1614701e+00   5.9036826e-01   1.1377351e+00   9.9391061e-01   1.0328512e+00   6.9508851e-01   9.6679905e-01   9.2877072e-01   1.6624930e+00   6.0839598e-01   1.3976721e+00   3.8888626e-01   6.2884275e-01   1.0756228e+00   9.9074987e-01   1.1059539e+00   1.4871166e+00   3.6871362e-02   1.3564168e+00   1.0922982e+00   1.5352594e+00   1.0736510e+00   9.6103610e-01   1.6773218e+00   1.3811330e+00   8.4777702e-01   1.2783841e+00   1.3326431e+00   9.8346887e-01
   3.6856307e-01   1.1436982e+00   4.3689048e-02   1.3281447e+00   1.5863661e+00   1.3446124e+00   9.9789221e-01   1.7021309e-01   1.6633777e+00   4.6576475e-01   1.4414477e+00   4.5619505e-01   1.1854537e+00   1.1701007e+00   9.2574043e-01   3.9709683e-01   6.3672848e-01   7.1088025e-01   2.5810871e-01   1.1331543e+00   1.2671900e+00   8.7457541e-01   5.0046324e-01   1.5626468e+00   8.5294285e-01   1.0228785e+00   6.8104997e-01   1.1759385e+00   8.2383302e-01   1.7347752e+00   7.3435297e-01   1.4140713e+00   3.6038443e-01   6.8249842e-01   1.0552985e+00   1.0648142e+00   1.0128752e+00   1.6801623e+00   4.2790133e-02   1.1552719e+00   9.3160743e-01   1.6240312e+00   1.1166947e+00   1.1656048e+00   1.7542156e+00   1.3122620e+00   6.2363895e-01   1.4847466e+00   1.3503482e+00   8.3735772e-01
   3.3922779e-01   1.6076635e+00   4.3620385e-02   1.1917293e+00   1.3797656e+00   1.0648936e+00   9.8725244e-01   1.4815932e-01   1.8461206e+00   4.2855058e-01   1.8231163e+00   4.2102088e-01   8.9497261e-01   1.3470147e+00   8.8302522e-01   4.3373501e-01   7.7223160e-01   8.8419996e-01   2.3176780e-01   1.4308381e+00   1.4471904e+00   1.1909721e+00   4.4834810e-01   1.3139673e+00   8.9185069e-01   9.6352955e-01   8.1757905e-01   1.0846326e+00   8.1252956e-01   1.6690911e+00   7.4247502e-01   1.2184456e+00   4.2398897e-01   7.0194094e-01   1.0395518e+00   9.6163027e-01   8.8740945e-01   1.4678545e+00   4.2492360e-02   1.2825069e+00   9.5598148e-01   1.8152082e+00   1.1732351e+00   1.1966681e+00   1.7320499e+00   1.5406966e+00   7.2068375e-01   1.4626176e+00   1.3015401e+00   9.4529957e-01
   3.7321285e-01   1.2916440e+00   3.6760520e-02   1.2038182e+00   1.7736400e+00   1.0560683e+00   1.0088956e+00   1.7130748e-01   1.7880394e+00   5.4522975e-01   1.4583011e+00   4.4751826e-01   1.1418868e+00   1.1738752e+00   8.2423923e-01   4.0672429e-01   8.8841777e-01   7.8937910e-01   2.6012160e-01   1.0341322e+00   1.6183915e+00   1.4405940e+00   4.6047295e-01   1.3355423e+00   9.9818013e-01   1.0822912e+00   8.5778004e-01   1.2343205e+00   7.4091091e-01   1.4856873e+00   5.4400852e-01   1.3503826e+00   3.5287030e-01   6.4791215e-01   8.1205930e-01   9.2327187e-01   1.0605484e+00   1.8586070e+00   3.7941638e-02   1.3827559e+00   1.0881976e+00   1.6876820e+00   1.0902595e+00   1.0401208e+00   1.6190601e+00   1.5230638e+00   6.7747530e-01   1.6653045e+00   1.4713980e+00   1.0255443e+00
   4.0135413e-01   1.7129645e+00   2.7158740e-02   7.2942788e-01   1.6428639e+00   1.1979621e+00   9.5459606e-01   1.5582122e-01   1.3513592e+00   5.4201427e-01   1.3451099e+00   4.5957927e-01   1.0476717e+00   1.4950705e+00   8.7461262e-01   4.9288917e-01   7.2146753e-01   6.9466371e-01   2.2273002e-01   1.3022090e+00   1.6610163e+00   1.1456761e+00   4.4387540e-01   1.3168231e+00   9.2310013e-01   9.0479194e-01   1.0082602e+00   1.0418217e+00   9.1529404e-01   1.1489460e+00   7.0308927e-01   1.1261540e+00   3.7468118e-01   6.1140584e-01   9.0401692e-01   1.1686233e+00   9.0429426e-01   1.7551226e+00   4.7572214e-02   1.1148874e+00   1.2943206e+00   1.6924544e+00   1.1557818e+00   1.0819290e+00   1.4370574e+00   1.6081183e+00   4.9329285e-01   1.2562495e+00   1.3634052e+00   9.6116519e-01
   2.7245043e-01   1.1741296e+00   3.5977689e-02   1.0455667e+00   1.5259335e+00   1.1509282e+00   1.1212011e+00   1.6768410e-01   1.6644557e+00   4.4704790e-01   1.1506571e+00   3.7856087e-01   1.0181389e+00   1.6356780e+00   8.6166082e-01   4.6266003e-01   7.0527953e-01   7.0981548e-01   2.1700972e-01   1.0653849e+00   1.5535327e+00   1.2851518e+00   6.2644266e-01   1.7144735e+00   1.0953795e+00   1.0302599e+00   7.9099772e-01   1.1383624e+00   7.2479487e-01   1.3966251e+00   6.2391534e-01   1.2444015e+00   2.8104108e-01   5.1994889e-01   1.0302671e+00   1.1453168e+00   9.2934439e-01   1.9726752e+00   4.5245483e-02   1.3190693e+00   8.9889751e-01   1.2962530e+00   1.0392136e+00   1.2369770e+00   1.7117211e+00   1.5000615e+00   5.5640595e-01   1.7281009e+00   1.4992192e+00   8.6537765e-01
   3.4009993e-01   1.2305948e+00   3.6790607e-02   1.0661953e+00   1.9153204e+00   1.0175427e+00   8.6274425e-01   1.4893759e-01   1.5985723e+00   5.6904857e-01   1.3728059e+00   3.7197518e-01   8.9771516e-01   1.4677415e+00   7.9178009e-01   3.6848048e-01   6.1203914e-01   5.0503629e-01   2.2379155e-01   1.0888193e+00   1.3945923e+00   1.0076123e+00   5.6309788e-01   1.0214739e+00   9.8915055e-01   1.0330883e+00   8.3539900e-01   1.2469614e+00   6.5269331e-01   1.3583672e+00   5.8572294e-01   1.5066331e+00   3.9221701e-01   6.7655453e-01   1.1015198e+00   1.0436710e+00   9.6458886e-01   1.3688503e+00   3.7194220e-02   1.0721091e+00   1.0440764e+00   1.5321237e+00   1.2841890e+00   1.2445026e+00   1.6226309e+00   1.5877517e+00   6.6339190e-01   1.9017599e+00   1.0304346e+00   8.1138541e-01
   2.8829285e-01   1.2695731e+00   3.4775214e-02   8.1414540e-01   1.1302296e+00   1.2463190e+00   1.0316727e+00   1.3190852e-01   1.4634859e+00   5.5115357e-01   1.0350311e+00   4.4543290e-01   7.0852031e-01   1.3291620e+00   8.3425448e-01   3.9944854e-01   6.7194920e-01   7.0119562e-01   1.9547934e-01   8.3228349e-01   1.7647475e+00   1.0407044e+00   4.2508817e-01   1.3367390e+00   9.5200137e-01   8.9412680e-01   8.9396878e-01   1.0856421e+00   5.7984098e-01   1.5816665e+00   6.0677610e-01   1.3506256e+00   3.0038925e-01   6.0543516e-01   8.0380435e-01   9.1518032e-01   8.5668100e-01   1.4889142e+00   3.6188985e-02   1.1441730e+00   8.7311172e-01   2.0791085e+00   1.0519529e+00   1.2181535e+00   1.5939514e+00   1.4903586e+00   6.7387497e-01   1.7348245e+00   1.3334556e+00   8.8820138e-01
   3.5249953e-01   1.4812873e+00   3.2508616e-02   7.6260221e-01   1.4471171e+00   9.1929231e-01   7.0361703e-01   1.2444606e-01   1.4730818e+00   3.3142694e-01   1.2754135e+00   4.5540938e-01   8.8750377e-01   1.0597823e+00   7.8173882e-01   2.9174823e-01   5.3361587e-01   6.1703709e-01   2.3251287e-01   9.9140451e-01   1.1500925e+00   1.0998118e+00   3.6395419e-01   1.3503934e+00   7.9865431e-01   1.1888475e+00   5.5597730e-01   1.0526349e+00   6.5156822e-01   1.5861893e+00   5.5365596e-01   9.6417773e-01   4.2707201e-01   7.2810897e-01   1.1426946e+00   7.9404174e-01   9.5388636e-01   1.4693741e+00   4.1174561e-02   1.2584643e+00   1.1529160e+00   1.7037197e+00   1.1654874e+00   8.6101147e-01   1.7231189e+00   1.4730998e+00   6.1338865e-01   1.1816203e+00   1.2300324e+00   8.7683264e-01
   3.0974767e-01   9.8252469e-01   3.2919586e-02   8.1085430e-01   1.3830356e+00   1.3070864e+00   1.0053263e+00   1.5318740e-01   1.2120272e+00   3.5917799e-01   1.5465633e+00   4.0066933e-01   9.4974210e-01   1.4007857e+00   8.1214130e-01   3.4952431e-01   7.8251754e-01   7.4738756e-01   2.1651221e-01   1.0720833e+00   1.3965975e+00   9.5533737e-01   5.0488554e-01   1.4642407e+00   6.6186740e-01   9.1213503e-01   9.7905550e-01   1.1534969e+00   5.7006103e-01   1.5478619e+00   6.1531953e-01   1.4484015e+00   3.5875026e-01   6.1668702e-01   8.4657970e-01   9.3453707e-01   1.0158303e+00   1.6734927e+00   3.0465964e-02   1.2094942e+00   1.0356361e+00   1.3279338e+00   1.0950186e+00   1.1163929e+00   1.5885277e+00   1.4087018e+00   7.1841480e-01   1.1721614e+00   1.0864383e+00   8.5190461e-01
   2.7880822e-01   9.8286072e-01   2.7771136e-02   9.1062477e-01   1.1804414e+00   6.7970115e-01   6.0443252e-01   1.4961529e-01   1.4660991e+00   3.5224156e-01   1.2058530e+00   5.0411845e-01   7.5324695e-01   1.0370818e+00   7.2431520e-01   3.3749006e-01   6.2691536e-01   5.8406996e-01   2.3480013e-01   1.0268869e+00   1.1909196e+00   9.5277866e-01   4.4028925e-01   1.0207974e+00   8.3279747e-01   9.7862170e-01   5.1648098e-01   7.2723933e-01   6.7469577e-01   1.6376738e+00   5.6643229e-01   9.4880318e-01   3.2673112e-01   4.7008430e-01   9.3078246e-01   9.5831298e-01   1.0969993e+00   1.1011857e+00   3.4442893e-02   8.1647835e-01   1.0133246e+00   1.4589238e+00   1.0943170e+00   1.1232519e+00   1.3896202e+00   1.2946374e+00   6.7073131e-01   1.6167791e+00   1.1644360e+00   9.0031313e-01
   3.0045062e-01   1.0426056e+00   3.4906832e-02   7.1836661e-01   1.2248795e+00   8.6434667e-01   9.0054250e-01   1.3846773e-01   1.2975488e+00   3.5583949e-01   1.5953972e+00   4.3586708e-01   7.9657376e-01   1.1550419e+00   6.2637119e-01   3.3199122e-01   4.9422216e-01   6.7085256e-01   2.1438860e-01   8.2592669e-01   8.7890391e-01   1.1837309e+00   3.6080735e-01   1.2154632e+00   8.5136650e-01   7.3916835e-01   6.4477381e-01   7.3005873e-01   5.6206309e-01   1.2089510e+00   5.5431141e-01   9.8389926e-01   3.2825127e-01   6.5376008e-01   7.5415030e-01   9.1032953e-01   6.6388398e-01   1.5110189e+00   3.8611088e-02   1.0265925e+00   9.6555542e-01   1.8238889e+00   9.1865914e-01   1.1906820e+00   1.2584727e+00   1.3804603e+00   6.7838290e-01   1.4998765e+00   1.2114180e+00   7.8491682e-01
   2.4300596e-01   9.5440725e-01   3.9213252e-02   7.0750065e-01   8.9887585e-01   1.0062098e+00   6.6871870e-01   1.2187361e-01   1.4512870e+00   4.0592901e-01   9.9024144e-01   2.5298556e-01   6.8140268e-01   1.1960569e+00   7.5951623e-01   4.5151474e-01   6.1911039e-01   6.5917707e-01   2.1918040e-01   9.5722557e-01   8.2060220e-01   9.9894630e-01   3.2962732e-01   1.3316741e+00   6.8014566e-01   9.1013346e-01   5.9641752e-01   8.8409295e-01   7.7082987e-01   1.2183507e+00   5.6036165e-01   1.1406263e+00   2.5904044e-01   5.8280234e-01   1.0366862e+00   9.0433471e-01   6.7172676e-01   1.7109843e+00   3.5266631e-02   1.0420997e+00   1.2163446e+00   1.2150663e+00   9.1831408e-01   8.6329660e-01   1.4980119e+00   1.1996060e+00   5.7882262e-01   1.4657123e+00   1.1637510e+00   8.7061372e-01
   2.5989254e-01   1.0672012e+00   2.7947426e-02   6.9310248e-01   1.3271841e+00   1.0296841e+00   8.8497411e-01   1.3559548e-01   1.2348206e+00   3.3882375e-01   1.0880920e+00   4.2777473e-01   9.0783005e-01   7.0294402e-01   7.0418388e-01   3.9535768e-01   6.5778653e-01   4.9287073e-01   1.6394759e-01   9.0068635e-01   1.1116450e+00   1.0259509e+00   4.4973152e-01   1.2250430e+00   8.5935026e-01   8.2664922e-01   5.8538910e-01   7.5916716e-01   5.0644665e-01   1.1481560e+00   3.6561743e-01   1.1373648e+00   2.7512742e-01   4.4928501e-01   6.2183398e-01   8.9283128e-01   7.7071781e-01   1.4984215e+00   3.6017250e-02   1.0868685e+00   8.5009041e-01   1.2637693e+00   9.8645060e-01   8.7144506e-01   1.3974439e+00   1.5875535e+00   5.4426744e-01   1.3289171e+00   1.1917012e+00   7.0657427e-01
   2.5033346e-01   9.3608306e-01   1.7168457e-02   7.1645401e-01   1.0035640e+00   8.4795567e-01   5.7565878e-01   1.1529610e-01   1.2638762e+00   4.1331417e-01   7.9965564e-01   2.4520998e-01   6.4471126e-01   1.0324291e+00   6.0876686e-01   3.2467661e-01   4.1910643e-01   5.4818255e-01   1.7232438e-01   8.4874373e-01   1.1078780e+00   9.1967630e-01   4.3396447e-01   1.3495733e+00   7.3458687e-01   8.4387096e-01   4.9986503e-01   8.6074420e-01   5.6660926e-01   9.7048484e-01   5.3123599e-01   1.2179247e+00   2.5852117e-01   4.5733249e-01   8.2996134e-01   7.4413958e-01   8.0695930e-01   1.1890089e+00   2.5520783e-02   8.5932302e-01   9.0518528e-01   1.6044804e+00   1.0666392e+00   9.1372475e-01   1.1621656e+00   1.2229731e+00   5.5434432e-01   1.1910060e+00   1.0465508e+00   4.9883154e-01
   2.5781726e-01   7.6725405e-01   2.9079310e-02   6.5157872e-01   1.0958289e+00   8.9129635e-01   7.2481225e-01   1.1367314e-01   1.0297042e+00   4.0860359e-01   8.1597751e-01   3.0936929e-01   7.7388417e-01   1.0554563e+00   6.0587829e-01   3.0575273e-01   5.4637268e-01   3.7176394e-01   1.9348372e-01   5.3127991e-01   9.8584850e-01   9.1288485e-01   3.4942508e-01   9.2936898e-01   5.4316575e-01   6.3412225e-01   8.0352576e-01   1.0100005e+00   5.9927153e-01   1.3624661e+00   4.9877135e-01   8.9795069e-01   2.7519074e-01   4.6225482e-01   9.6915624e-01   9.6679423e-01   8.0567524e-01   1.1993666e+00   3.2220725e-02   9.8998170e-01   8.0419018e-01   1.1640360e+00   9.6450035e-01   8.1012102e-01   1.2528334e+00   1.1202911e+00   4.5879559e-01   9.9517855e-01   1.0584713e+00   7.7502477e-01
   2.4756742e-01   1.0014661e+00   3.1816458e-02   7.7601919e-01   8.3790027e-01   5.1813670e-01   5.8535789e-01   1.1434116e-01   7.7509902e-01   2.7136183e-01   9.2303016e-01   3.5805224e-01   7.5309926e-01   1.2073094e+00   6.2797328e-01   2.8859607e-01   4.8201695e-01   3.8209046e-01   1.0868577e-01   6.3959944e-01   1.1573600e+00   8.0259090e-01   4.1954587e-01   8.4175951e-01   5.3613603e-01   7.2119620e-01   6.0658438e-01   1.0079159e+00   5.5120812e-01   9.2272563e-01   5.2260182e-01   9.0855349e-01   2.4675086e-01   4.9404826e-01   8.4048892e-01   8.9719095e-01   8.8245586e-01   1.3246603e+00   3.0252404e-02   1.0017632e+00   8.8100685e-01   1.3330035e+00   8.9434487e-01   6.5775446e-01   1.0388706e+00   1.1177654e+00   6.4108460e-01   1.1420345e+00   9.0889746e-01   5.3147072e-01
   2.7044219e-01   9.0041023e-01   3.0289355e-02   7.2854016e-01   1.1428284e+00   4.0765654e-01   8.0368809e-01   1.2189950e-01   1.0285456e+00   2.1288660e-01   1.0669777e+00   2.5186533e-01   3.7021714e-01   6.4049110e-01   8.1234736e-01   3.4653614e-01   6.1112626e-01   4.2315826e-01   1.6724153e-01   6.6875913e-01   7.0869865e-01   7.8642417e-01   2.4899953e-01   9.4837698e-01   7.2278750e-01   5.7662621e-01   5.2871077e-01   7.0611923e-01   5.0108505e-01   9.9078859e-01   6.1349456e-01   9.0508208e-01   2.0476873e-01   4.5626555e-01   9.1698256e-01   6.6096424e-01   7.4941947e-01   1.3054721e+00   2.6381446e-02   1.0250043e+00   8.3165730e-01   1.0010750e+00   7.5574048e-01   6.4895313e-01   1.2875066e+00   9.7587379e-01   4.5843312e-01   1.0352971e+00   9.7928608e-01   7.2610968e-01
   2.1545248e-01   7.9326595e-01   2.2205978e-02   5.8180113e-01   1.1712291e+00   7.0499169e-01   5.0250151e-01   9.3825860e-02   9.0841381e-01   2.1388888e-01   7.4104676e-01   2.9019070e-01   7.9818114e-01   1.0311805e+00   5.8518582e-01   3.5708991e-01   3.6254650e-01   4.7248796e-01   1.6279107e-01   8.3046897e-01   8.4852793e-01   6.7982620e-01   2.9457170e-01   9.9888110e-01   5.8840013e-01   6.9696848e-01   6.9998861e-01   7.9198554e-01   5.2557481e-01   1.1726152e+00   3.2106331e-01   7.2934057e-01   2.2049481e-01   4.3379616e-01   9.2564302e-01   8.8888377e-01   6.2108819e-01   1.2544802e+00   1.8116546e-02   8.3733717e-01   6.1350089e-01   1.4227733e+00   8.9604262e-01   8.3235402e-01   8.8905331e-01   1.1950183e+00   6.4580140e-01   9.8797498e-01   7.3498760e-01   6.6613314e-01
   2.3612886e-01   7.6068069e-01   1.6400028e-02   5.9605462e-01   7.7591171e-01   4.4726396e-01   4.2495246e-01   6.1157801e-02   1.0015509e+00   1.8976418e-01   5.5240354e-01   3.0755470e-01   6.6080934e-01   6.9987657e-01   4.0331949e-01   2.5352901e-01   4.1882214e-01   5.1903050e-01   1.3265624e-01   7.1803477e-01   9.0494573e-01   7.0913590e-01   2.5531603e-01   8.5137984e-01   5.1237299e-01   6.5984540e-01   5.8616342e-01   5.6089248e-01   2.9613207e-01   1.1053497e+00   4.1410702e-01   8.1836831e-01   2.5828321e-01   4.2478288e-01   6.2466829e-01   6.4462517e-01   4.6513459e-01   1.1605638e+00   1.4187177e-02   8.8579628e-01   6.8159429e-01   1.2519257e+00   4.8743778e-01   7.0853526e-01   1.1392198e+00   1.0814450e+00   4.6512956e-01   1.0670719e+00   1.0967339e+00   6.2995424e-01
   2.4719924e-01   7.6565922e-01   1.5926541e-02   5.1349820e-01   8.4898752e-01   5.3967096e-01   5.9932585e-01   1.2071512e-01   6.7251170e-01   2.5250388e-01   7.1376674e-01   2.6333718e-01   6.9563577e-01   6.2782762e-01   4.4388340e-01   1.6810066e-01   3.6277185e-01   3.1338524e-01   1.9963773e-01   9.1068878e-01   1.1666793e+00   6.6432165e-01   3.2347713e-01   7.6542684e-01   6.8976877e-01   5.1520986e-01   5.6463590e-01   9.6887201e-01   5.7638700e-01   6.2106095e-01   1.9465024e-01   6.4003235e-01   2.0933133e-01   4.8795798e-01   5.7626181e-01   4.7270602e-01   5.0100161e-01   6.1276141e-01   1.5771105e-02   7.6574781e-01   7.3702445e-01   1.0801054e+00   6.0766764e-01   5.5644087e-01   1.1815020e+00   1.0445147e+00   2.8247857e-01   1.1294941e+00   1.0092483e+00   4.9089813e-01
   1.9755843e-01   6.8793323e-01   1.6548091e-02   4.2308687e-01   1.0264273e+00   5.6287798e-01   6.4196621e-01   7.7530531e-02   1.1271881e+00   2.8397318e-01   8.4735393e-01   2.3642650e-01   7.0008922e-01   4.9429277e-01   4.7164244e-01   1.8128656e-01   2.3620938e-01   2.7027325e-01   1.7877631e-01   6.0637496e-01   6.7322640e-01   4.7419857e-01   2.4619483e-01   5.3117041e-01   5.0321381e-01   6.0476360e-01   3.1308058e-01   6.3412806e-01   3.3057974e-01   9.2691675e-01   3.8060959e-01   1.0040400e+00   1.4292368e-01   4.7074694e-01   3.6505359e-01   6.6461285e-01   4.0719384e-01   1.3872756e+00   2.0001063e-02   6.8184758e-01   7.1703414e-01   9.3828678e-01   7.0815344e-01   7.1096980e-01   9.5082949e-01   1.0106154e+00   4.1519879e-01   8.0892193e-01   8.0135265e-01   6.2407669e-01
   1.4529529e-01   6.7724982e-01   1.8524139e-02   3.8962071e-01   2.0307354e-01   2.8798080e-01   5.7376017e-01   5.2510665e-02   9.3951371e-01   2.3106325e-01   6.9158194e-01   2.2478075e-01   3.6715558e-01   6.5023921e-01   5.6658433e-01   2.5110593e-01   2.4235438e-01   4.2179473e-01   1.3495142e-01   6.1720536e-01   7.6804945e-01   4.4122724e-01   2.9177144e-01   8.6495782e-01   4.3094374e-01   5.5676040e-01   5.1767470e-01   4.1525493e-01   3.5569201e-01   8.0827897e-01   4.1894893e-01   8.2090684e-01   1.4214763e-01   2.7321204e-01   4.8276973e-01   4.2493630e-01   4.2895167e-01   8.4701175e-01   2.4324759e-02   8.6404906e-01   6.1533834e-01   1.0146506e+00   6.4706512e-01   7.3779160e-01   8.8096012e-01   9.9704496e-01   3.4040695e-01   6.0375574e-01   1.0879297e+00   4.6190707e-01
   7.7370969e-02   4.9646185e-01   1.5046367e-02   3.0005113e-01   5.8813097e-01   5.3256292e-01   3.5560124e-01   6.2032224e-02   6.8546697e-01   1.9496949e-01   6.2417761e-01   2.0468539e-01   5.8609968e-01   6.1281197e-01   2.9272174e-01   2.3797825e-01   2.5785316e-01   3.4455809e-01   1.1290494e-01   5.5198662e-01   7.2130855e-01   5.8336654e-01   1.9855011e-01   8.0164099e-01   4.4489010e-01   3.9383303e-01   5.2695024e-01   7.4712334e-01   3.7452491e-01   7.7156226e-01   3.9099880e-01   8.9596789e-01   1.5446858e-01   3.0022141e-01   4.8405078e-01   4.2352951e-01   5.6837170e-01   8.4940468e-01   1.1843907e-02   5.6096826e-01   4.9832691e-01   1.0440504e+00   3.9156270e-01   3.7455697e-01   1.0359871e+00   8.6439053e-01   4.0991039e-01   5.4708242e-01   9.4301932e-01   4.5171949e-01
   1.4849039e-01   7.0237499e-01   2.1190135e-02   3.3753147e-01   4.2404568e-01   5.2438314e-01   3.2693162e-01   7.0984111e-02   5.3138312e-01   1.6184912e-01   6.1308082e-01   1.6249594e-01   5.5591373e-01   4.8273159e-01   5.1547398e-01   1.8064902e-01   3.7932774e-01   1.3978930e-01   1.0543535e-01   3.3455599e-01   3.5967193e-01   5.9107686e-01   2.4151342e-01   8.1843926e-01   4.6772040e-01   6.3638998e-01   4.6212390e-01   2.9758018e-01   3.0320362e-01   8.9286602e-01   3.7437546e-01   8.3669470e-01   1.1139601e-01   3.8934573e-01   5.4031079e-01   2.4820273e-01   3.9684615e-01   8.6979155e-01   2.3291209e-02   4.2476567e-01   4.5284242e-01   7.4011784e-01   8.0290294e-01   4.0248887e-01   8.3832074e-01   8.1562809e-01   3.2916662e-01   5.5583937e-01   6.5829945e-01   5.8635455e-01
   1.1163487e-01   5.7242606e-01   1.6458074e-02   6.4339823e-01   3.8276725e-01   5.2551114e-01   3.6841985e-01   5.6450640e-02   3.9737636e-01   2.3575971e-01   6.6868153e-01   1.9185862e-01   4.0910478e-01   4.0990328e-01   5.0692396e-01   2.0666674e-01   2.7195589e-01   1.2680326e-01   9.4561798e-02   4.0639351e-01   3.9650607e-01   5.0304767e-01   2.1555936e-01   9.4808969e-01   2.9640943e-01   5.2895120e-01   2.2206940e-01   3.2867981e-01   1.0822378e-01   7.5744966e-01   4.1970757e-01   7.0839618e-01   1.6139586e-01   2.8689800e-01   3.7399309e-01   5.1509236e-01   1.7903217e-01   9.2370858e-01   9.6140208e-03   6.8178096e-01   5.0906725e-01   6.8615578e-01   4.6583209e-01   5.5030556e-01   5.6710473e-01   7.3267796e-01   3.2174422e-01   6.5570139e-01   6.4788172e-01   3.1498393e-01
   1.3956859e-01   7.4326228e-01   2.1100373e-02   3.1943494e-01   8.5730819e-01   7.7076292e-01   3.1111141e-01   6.3600137e-02   2.9953632e-01   1.6838324e-01   6.0296913e-01   2.1779489e-01   3.1749489e-01   5.1786511e-01   4.0079361e-01   1.6761451e-01   3.2226448e-01   2.4159181e-01   9.5470756e-02   4.3680636e-01   7.0697828e-01   2.1204885e-01   1.4034988e-01   3.0377282e-01   4.5318878e-01   2.0154250e-01   3.7102256e-01   3.0762965e-01   2.5081109e-01   9.6461427e-01   3.1854485e-01   9.3196687e-01   1.2538731e-01   3.4189729e-01   5.9120058e-01   4.5793041e-01   4.3662246e-01   8.5110181e-01   1.3341845e-02   4.6154012e-01   5.2476270e-01   5.2485461e-01   5.8494813e-01   6.4035936e-01   3.6154501e-01   8.1081830e-01   2.4211138e-01   9.1422850e-01   6.0734697e-01   5.8385974e-01
   9.9248985e-02   5.8716059e-01   6.3749054e-03   1.9783067e-01   5.3136459e-01   5.3387637e-01   1.1336999e-01   4.7170625e-02   4.5358583e-01   1.3851258e-01   3.2791053e-01   2.0652255e-01   3.6514151e-01   4.2880743e-01   3.8240063e-01   1.2501141e-01   1.5394936e-01   2.5983933e-01   8.1814889e-02   3.3561744e-01   5.0946483e-01   4.6084386e-01   8.6929109e-02   5.5129127e-01   2.8678115e-01   4.8699701e-01   2.3463686e-01   2.1407021e-01   2.1459343e-01   6.2081771e-01   2.2623497e-01   2.9846172e-01   9.7658983e-02   1.2322451e-01   3.5521016e-01   2.0708425e-01   2.8250024e-01   8.9985529e-01   2.0339843e-02   4.9982524e-01   5.5218193e-01   3.7344305e-01   5.0855776e-01   2.6296953e-01   9.0650103e-01   3.8753218e-01   3.8832480e-01   6.6091665e-01   4.8634256e-01   3.5216768e-01
   9.5157077e-02   6.7258348e-01   2.0052923e-03   3.8265241e-01   5.1084426e-01   3.9396090e-01   2.7965927e-01   4.8731522e-02   3.6003455e-01   1.8603428e-01   2.3175197e-01   1.0896282e-01   2.3737079e-01   3.9122564e-01   2.9839954e-01   2.0437472e-01   3.0405941e-01   2.1672018e-01   7.0147725e-02   2.2221694e-01   5.4647252e-01   6.8497012e-01   1.4702220e-01   4.1427232e-01   2.0300985e-01   3.1597613e-01   3.1986631e-01   2.8324135e-01   3.8869157e-01   3.7388853e-01   1.8917499e-01   4.4914529e-01   4.5198003e-02   2.4146342e-01   5.2855769e-01   3.6759205e-01   3.8239595e-01   4.5661713e-01   1.3633436e-02   3.5973276e-01   3.7649608e-01   4.1799079e-01   3.6617710e-01   2.9553371e-01   6.8778230e-01   5.0264241e-01   2.4602418e-01   3.7679626e-01   4.9446700e-01   2.3171728e-01
   7.3160202e-02   3.8069575e-01   1.2373068e-02   2.9462744e-01   3.7884718e-01   7.2142729e-01   3.1155301e-01   6.3682649e-02   3.7368568e-01   1.5844768e-01   7.5537435e-02   8.9907829e-02   1.4375755e-01   5.3134227e-01   2.9949597e-01   1.8840826e-01   1.4298539e-01   1.2288521e-01   1.1654064e-01  -5.0670075e-02   5.9854468e-01   4.8573232e-01   1.0829080e-01   2.4563804e-01   4.2316762e-01   2.8885185e-01   1.5308966e-01   4.4954247e-01   2.9199499e-01   4.8570717e-01   2.2508829e-01   4.8245195e-01   1.9069711e-01   1.8526514e-01   3.8547076e-01   3.3658429e-01   4.6366050e-01   7.8901655e-01   1.6594668e-02   2.0671220e-01   4.1950759e-01   5.8243917e-01   2.7121259e-01   2.6973093e-01   8.7945529e-01   6.7817897e-01   1.9240197e-01   4.2667949e-01   2.3888217e-01   2.7696207e-01
  -1.8573821e-02   3.0196571e-01   1.0560684e-02   4.0911840e-01   2.5256782e-01   2.5999777e-01   1.9241990e-01   5.2539689e-02   5.5135169e-01   1.0084324e-01   4.5304129e-01   1.9484123e-01   2.5794940e-01   1.3504137e-01   1.5667327e-01   1.5726057e-01   1.7938079e-01   2.5799294e-01   2.2806911e-02   3.3600681e-01   3.5731399e-01   4.6698846e-01   1.7344355e-01   3.6510972e-01   2.0264101e-01   3.3492674e-01   1.4351026e-01   3.0474532e-01   3.1860977e-01   2.2254339e-01   2.2186789e-01   3.4753227e-01   1.1858420e-01   1.0292437e-01   2.0685208e-01   3.1044023e-01   2.6094071e-01   5.5663376e-01   1.1322090e-02   4.9103269e-01   2.5982157e-01   2.9075202e-01   1.7358476e-01   3.6339042e-01   1.7174495e-01   2.6155169e-01   1.6878052e-01   5.9029519e-01   2.3088295e-01   3.1461406e-01
   2.4578196e-02   4.0909643e-01   3.7457143e-03   2.6762902e-01   5.2912957e-01   2.6567359e-01   1.9127149e-01   4.7588022e-02   1.7913054e-01   1.5004257e-01   9.9577804e-02   1.3964190e-01   4.6345282e-02   2.4782001e-01   8.5359184e-02   2.8441127e-02   2.3573832e-01   1.9569565e-01   2.3539656e-02   2.6232200e-01   5.9276728e-01   8.0417472e-02   1.1051281e-02   2.4638311e-01   3.6534212e-01   2.3152245e-01   1.0441069e-01   2.5531017e-01   1.0853603e-01   6.6634487e-01   1.7396721e-01   4.4379819e-01   1.6411418e-01   4.0604836e-02   4.1057133e-01   2.4392521e-01   1.7219648e-01   8.3151084e-01   9.4655825e-03   4.2267529e-01   4.1563296e-01   2.6559451e-01   3.0488613e-01   2.5951305e-01   3.0695721e-01   2.9437236e-01   1.4607168e-01   4.2803725e-01   2.3136981e-01   3.2060445e-03
   7.1481760e-02   2.8031367e-01   1.0002520e-02   2.4282088e-01   4.5908809e-01  -4.9795154e-02   4.2746308e-01   1.1822699e-02   2.3142418e-01   9.5662550e-02   3.8388698e-01   2.4216413e-02   1.7255024e-01   3.3528184e-01   1.7471554e-01   5.1825208e-02   1.0690944e-01   1.8161055e-01   4.7727142e-04   1.7695357e-01   4.0270619e-01   1.2122834e-01   1.6377129e-01   4.8862412e-01   2.3074519e-01   1.6321139e-01   1.9557997e-01   2.5774559e-01   1.5282940e-01   2.5934431e-01   2.1535517e-01   2.5424421e-01   2.5025799e-02   1.2823093e-01   2.5059477e-01   3.8589526e-01   9.8762626e-02   3.1775404e-01   7.0065097e-03   2.5167064e-01   4.4558270e-01   3.5378929e-01   2.9529949e-01   3.6539040e-01   3.9106520e-01   3.7875109e-01   2.0334326e-01   5.6577173e-01   1.7674992e-01   1.7336470e-01
   3.3757279e-02   1.0368920e-01   8.8803060e-04   5.2751603e-02   1.9049546e-01   2.2029993e-01   2.2800972e-01   4.1891307e-02   2.9771959e-01   7.8505120e-02   2.5342559e-01   4.7184231e-03   3.5079279e-01   8.9217980e-02   2.6507282e-01   7.2617891e-02   7.1186060e-02   1.7680216e-01  -1.2722881e-02   3.5758033e-01   2.3862759e-01   3.8326393e-01   5.4401449e-02   3.6127248e-01   6.4944269e-02   2.9592940e-01   8.7198110e-02   9.9834889e-02   1.6104997e-01   2.0591028e-01   8.1885151e-02   3.2743762e-01   3.9737501e-02   1.1502975e-01   2.4492744e-01   2.3544984e-01   4.8796769e-02   3.5747205e-01   3.2800808e-03   1.8506813e-01   2.6882688e-01   4.7571051e-01   3.0326222e-01   2.4205364e-01   2.3414344e-01   5.4510253e-01   2.3552593e-01   3.6439256e-01   4.3444903e-01   5.8228360e-02
   6.1889295e-02   4.1799458e-01   6.3509000e-03   1.3400287e-01  -1.5172495e-01  -9.8530318e-02  -1.3424903e-01  -1.6268087e-02   3.0652485e-01   5.6495243e-02   2.2619757e-01   1.2563139e-01   1.6880826e-01   1.8882918e-01   9.9336420e-02   1.3543099e-01   2.8722748e-01   1.7714283e-01  -3.0093328e-04   7.8584283e-02   1.1405381e-01   1.2880157e-01   4.5122572e-02   2.4140627e-01   7.6940601e-02   2.3595070e-01   1.7433470e-02   3.1775086e-01   4.1187095e-02   3.0876519e-01   1.8347000e-01   3.4794121e-01   5.4424795e-02   6.1960094e-02  -1.9925334e-03   2.1662559e-01   1.5399733e-01   5.3734899e-01   1.4223420e-03   1.4410465e-02   2.4307655e-01   2.3607049e-01   4.5934357e-02   4.1775667e-02   2.3025075e-01   3.8468449e-01   1.6479804e-01   3.6630109e-01   3.2770183e-01   3.0422052e-01
   7.3622696e-02   3.7669232e-01   1.1778527e-03   2.4295720e-01   2.3695982e-01   2.9853170e-01   1.3346014e-01   1.7105979e-02   5.5843394e-01   4.7552668e-02   4.1008483e-02   1.4158279e-01   2.5706015e-01   3.6455383e-02   3.1493376e-01   3.0197161e-02   1.6798258e-01   2.1590238e-02   3.2364079e-02   1.1307812e-01   2.6931191e-01  -1.0825891e-01   1.2576426e-01   1.1268421e-01   1.5171376e-01   3.4747322e-02   1.4777885e-01   2.2003972e-01   1.1402453e-01   1.4076364e-01   1.6682587e-01   2.9393336e-01   3.3056700e-02   7.9480080e-02   9.9670767e-02   1.1631548e-01   1.5215838e-01   2.2655443e-01   4.3398515e-03   8.7955219e-02   1.6961124e-01   2.6142937e-01   5.5205336e-03   5.6146530e-02   3.4116390e-01  -9.0040117e-02   2.2047836e-01   2.6300833e-01   2.4462257e-01   2.4141352e-01
  -2.7381087e-02   5.8377052e-02   1.4133030e-02  -4.0322258e-02   5.2543938e-01  -6.8981620e-02   2.3217642e-01   3.3956489e-02   1.0040157e-01   8.8143237e-02  -2.9463328e-02   1.7544032e-02   5.0295150e-02   8.8943103e-02   6.4329908e-02   9.9560584e-02  -3.5827734e-02   2.4587174e-01  -7.3145088e-03   2.3405940e-01   1.5033011e-01   2.7774501e-01  -4.4929968e-02   3.6701275e-01  -1.6194306e-02   9.9962273e-02   1.2682641e-01  -7.9339730e-02  -1.2376863e-02   3.2137930e-01   3.4488481e-02   3.0125027e-02   3.5113638e-02   1.7074136e-01   1.7281159e-01   1.1497442e-01   1.2798215e-01  -1.7980481e-02   3.0092243e-03   3.9968594e-01   2.3347360e-01   1.9517819e-01   2.0140413e-01   3.6567142e-01   4.7568587e-01   1.8663036e-01   3.9629715e-02   3.8343598e-02   2.8214390e-01   7.0400882e-02
  -3.2841040e-02  -3.3187112e-04  -1.2203081e-03   1.1968235e-01  -5.8390574e-02   6.2422166e-02   6.0645766e-02  -1.8016291e-02  -7.3315015e-02   1.7222214e-02   1.5405093e-03   8.2598790e-02   1.5341848e-01   5.9735906e-02   2.9978650e-02   1.2478697e-01   6.1239911e-02   1.0309052e-01   6.9626657e-04   7.6372047e-02   2.0745092e-01   2.6291374e-01  -2.7702022e-02   2.5913193e-01   3.5517279e-01   1.8127978e-01   2.8306446e-01  -5.3585273e-02   1.3122719e-01  -5.7213554e-02   1.2044076e-01   4.2485247e-02  -1.2928333e-02   2.2863530e-02   2.1871356e-01   1.4939721e-01   1.4666348e-01   3.4525019e-01   4.7295139e-03  -8.0077421e-02   1.5314650e-01   6.7324814e-02   1.8632227e-01   2.8356974e-01   1.6372726e-01   2.9272901e-01   1.5452345e-01   2.3151393e-01   2.7234482e-01   2.0866547e-01
   4.6510881e-02   2.8877750e-01   4.0082820e-03  -4.5525723e-02  -2.4746211e-01   1.9855651e-01  -1.8679684e-01   4.5104366e-02   6.6816852e-02   2.9340505e-02   1.9314668e-01   1.5898744e-01  -1.3785459e-02   1.1296556e-01   4.7596680e-03  -4.0294274e-02   1.0844790e-01   8.7673983e-02   6.4279715e-02   1.9945433e-02   1.0159248e-01   7.0911433e-02   1.6039273e-01  -1.6530951e-01   5.0712784e-02   6.0950168e-02   7.6754558e-02   1.9968526e-01   3.1413996e-02  -4.4949290e-02   9.7396182e-02   3.0009005e-02   1.2538137e-02  -4.6001564e-02   2.0012157e-01   1.7222078e-01   7.5832257e-02   1.7199871e-01   6.8140160e-03   5.3851166e-02   5.3162957e-02   1.7326077e-02   1.7835143e-01   1.0636391e-01  -2.3762695e-02   2.6890922e-01   1.9273728e-01   6.1888688e-02   1.8790771e-01   1.0005581e-01
   3.1540041e-02   2.0573445e-01   4.9745176e-04   3.0810381e-01   1.4711620e-01   2.6081542e-04  -4.7797716e-02   1.8896883e-02  -2.8268530e-01   6.3317875e-03   7.7225784e-02  -2.5063462e-02  -2.3756305e-02   2.6757039e-01   1.2842595e-01   5.6993333e-02  -1.2898118e-01   2.2274180e-01   1.0019094e-02  -2.3882497e-02   2.4700571e-01   1.3657284e-01   1.7600969e-02   1.4262367e-02  -1.1408026e-01  -1.3655211e-01  -2.3753220e-02   7.4048566e-03  -3.6685697e-02   3.6785078e-01   7.4114830e-02   3.9553551e-03   8.5544098e-02  -1.3289488e-01  -4.9095354e-02   4.1120787e-01   1.6033331e-01   1.3896651e-01   1.5700949e-03   1.7490077e-01   2.2110896e-01   7.9869370e-02   1.6922787e-01   1.1095661e-01   1.3372253e-01  -7.6440617e-02   6.1354416e-02   1.2195790e-01  -2.5464753e-01  -6.4510592e-02
   3.4896614e-02   3.5605501e-01   1.4588968e-03  -6.6497472e-03  -2.7389678e-01   9.9091083e-02   5.3524751e-02  -6.6477729e-03   4.2817093e-02  -5.9577154e-02   1.1518970e-01  -1.1350963e-02   1.3028619e-01   4.2276115e-02  -1.2438557e-01  -1.0474797e-02   1.3601735e-01   1.5306947e-01   4.9449777e-03  -1.2514607e-01   1.3509250e-01  -1.0409799e-01   1.0034976e-01  -5.9629891e-02   7.3300744e-02   6.0926415e-02   1.4591981e-01   2.6372114e-01   2.3677044e-01   1.5771203e-01   2.1679794e-02   9.7959332e-02   1.9204749e-02  -4.6923972e-02  -6.5849317e-02  -6.8643462e-02   1.7213799e-01  -2.0969621e-01   3.4108596e-03  -2.1211859e-01   1.9055990e-03   1.6671156e-01   2.4799105e-01   1.0752456e-01   2.4290928e-01   1.2755636e-01   1.8218039e-01   4.2105484e-01   1.8986564e-01  -4.0982510e-03
   3.5545961e-03   6.2359713e-02  -3.1697023e-03  -2.8736972e-02  -8.5507545e-04   3.0909900e-01   5.1076426e-02   3.0080880e-02   2.8856601e-03   2.0249855e-02   1.1796610e-01  -7.1418235e-02  -6.3831796e-02   1.6355793e-02   2.7080713e-01  -4.4021811e-02  -9.5961111e-02  -4.3514072e-02   1.6287375e-02   2.9368605e-01  -1.2953590e-02   2.9569841e-01   7.8228705e-03  -3.3448242e-02   8.4678966e-02   8.2222319e-02   3.4522178e-02  -5.8063654e-02   1.2865857e-01  -7.0121438e-03   8.7875571e-02  -1.1379887e-01   1.1603148e-01   2.1250059e-02  -3.4561557e-02  -2.1250027e-01  -1.6318427e-02   2.9731399e-01   6.1419934e-03   3.0126838e-02   9.6797237e-02   1.4935153e-01   2.7128529e-01   2.0748098e-01   5.4986134e-01   2.2289568e-01   8.6322938e-02   4.1141152e-01   3.1250623e-01   9.1407061e-02
  -5.3589713e-04   1.2475588e-02   2.6399925e-03   1.0326980e-01   4.9577112e-01  -2.4577138e-02  -8.9282396e-02   7.8827871e-03  -1.2891949e-01   7.6939916e-02   4.2139593e-02   1.1015089e-01   1.2995488e-01  -1.5581151e-01  -2.4615041e-02   5.6316972e-03   7.5950989e-02  -3.1518358e-02  -3.5511764e-02   2.1370173e-01  -2.4080998e-02   4.6234299e-02  -6.6999362e-02  -6.7723754e-02   3.1534530e-01  -3.8868552e-03  -3.9155752e-02   1.8489280e-01  -3.8748441e-02  -1.6562801e-02  -2.6818911e-02   8.4513195e-02   9.8762866e-03   9.6531962e-02   9.6536752e-02   1.4533312e-01  -7.1626725e-02   1.2768941e-01  -7.8311636e-04   1.8263809e-01   1.9670500e-01   2.6015017e-01  -1.6027373e-01  -3.0476616e-01   1.4598329e-01   3.7830980e-01   1.4683285e-02   2.3562866e-01  -1.5224138e-01   1.1155774e-01
   1.6824824e-02  -9.6666040e-02   1.1722165e-02   1.1946223e-01  -1.5202223e-01   1.2454028e-01   1.5851816e-01  -1.9045333e-02   3.3944427e-01   1.3814885e-02   1.5593077e-02   1.5205820e-02  -8.3330432e-02  -1.9100779e-01   5.2299557e-03   1.4356453e-02  -1.0441023e-01  -4.3404947e-02  -1.2506138e-03   6.8926582e-03   3.1785197e-01   2.5998624e-03   1.1430933e-01   1.2441395e-01  -4.2882301e-02  -1.0922907e-01   7.8409849e-02  -8.2590017e-02   8.6301956e-02  -2.6708406e-02   6.9445583e-02  -4.8876477e-02   1.9405381e-02   6.4828919e-02  -5.6536423e-02  -2.6042878e-01   8.5602914e-02  -3.5359240e-01   5.4200442e-03  -4.1397866e-02   1.0381349e-02   1.4378965e-01   1.0772239e-01  -1.2129787e-03  -4.4545079e-02   2.2100435e-01   1.0608560e-02   7.9122624e-02  -1.4017190e-02   8.0887154e-02
   6.5512310e-02   2.3601679e-02  -3.5346176e-04   6.9422063e-02  -3.9103475e-02  -1.1743874e-01   5.0509179e-02  -2.1153731e-02   4.3306555e-01  -4.3662301e-02   8.8715795e-02  -7.0674357e-02   6.6816754e-02   1.2224282e-01   7.9650576e-02  -4.3323699e-03  -5.2345438e-02  -2.1819865e-02   2.0645639e-02   5.2767329e-02   1.0862660e-01  -2.8270860e-01   8.1115106e-02  -1.2161881e-01   1.2680658e-01  -3.9597539e-02  -6.4814415e-02   8.9561582e-02  -3.6075119e-02   4.0725509e-02  -4.0019920e-02  -6.5282502e-02  -1.2272730e-02   3.9289299e-02   1.1242303e-02  -5.6965362e-02  -1.2266962e-01  -2.2104627e-01   4.4182128e-04   7.5611719e-02  -4.0419286e-02   5.8124890e-01   6.6503620e-02   9.4772580e-02   1.4633365e-01   1.0587960e-01   1.7474151e-02   1.8014665e-01   1.9416409e-01   1.2778542e-01
  -4.6044601e-02  -2.0237736e-01   3.4367694e-04   1.7274459e-01  -2.9666169e-01   4.6437552e-02   5.8491633e-02   6.2191760e-03  -1.0609657e-01   7.8122246e-02  -1.6822151e-01   3.5054934e-02  -5.5110779e-02  -2.2593761e-01  -8.3652905e-02   3.9134345e-02   1.8022981e-01   1.2300705e-01   4.4487928e-02   6.2743265e-02   4.0619824e-01  -1.9651897e-03   1.2980152e-01  -3.1495723e-04   2.2239495e-01  -7.5430809e-02  -1.7228664e-01   1.5977943e-01   3.4146878e-02   2.1224942e-01   3.9570293e-02  -6.2989877e-02  -1.9423765e-02   7.6538729e-02   1.0571221e-01   1.6130478e-01  -8.5800917e-02  -2.1864753e-01   7.4392283e-04   2.2959843e-02  -1.2841175e-01   1.4993083e-01  -5.6755676e-02   8.0410936e-02   3.1136824e-01   1.2340493e-01  -4.1964355e-03   2.1270905e-01   1.3626826e-01  -1.0683359e-01
  -3.6525551e-02   1.5101061e-01   2.3552185e-03  -8.2073933e-02  -1.2179956e-01  -2.0096248e-02   4.3320725e-02  -5.9094685e-03   1.8065658e-01   7.8236800e-02  -7.4333548e-02   1.1687912e-01  -5.3422973e-02   4.6200510e-02   1.0120667e-01   1.4517971e-02   2.5604950e-01  -3.1693333e-02  -7.3801364e-03  -1.2192179e-01  -9.4053162e-02   1.0841596e-01   6.2027205e-02   7.7854847e-02   2.7163717e-01   1.5028263e-01  -2.1131902e-01   1.8957156e-01  -1.0475906e-02   3.4971757e-01   1.0456958e-01  -4.5000989e-02  -2.1907903e-02  -2.6070269e-03   6.0027309e-02   1.1571575e-01   2.1565846e-01  -2.0805476e-01   3.0912131e-03  -3.4958308e-02   1.6709552e-01   9.0280169e-02  -1.4629298e-01   4.1159950e-03  -6.5321101e-02   1.9562133e-01   2.0160197e-02   1.3806357e-02   3.7910236e-02  -2.2502750e-02
   2.3384903e-02  -1.6316262e-01   2.2231469e-03   2.9638962e-02  -1.9001500e-01   9.5259103e-02  -1.8480628e-01  -9.5822470e-03  -2.9888468e-02   3.1833668e-02   3.0563085e-01  -2.7487008e-02  -8.8565170e-03  -1.3703629e-01   8.2835332e-02  -3.0024431e-02   1.8443572e-01  -7.4656086e-02  -2.4507897e-02   1.4352208e-01  -2.9666308e-01  -2.6170129e-02   4.6206194e-02   2.1410417e-02   3.9036150e-02   1.5156692e-01   2.1210618e-01   2.0514428e-01   4.5374379e-02  -2.5746641e-01   1.2146129e-03   2.9707090e-02  -6.7494742e-03  -8.4109419e-02  -2.2530117e-01  -2.3546773e-01   4.9420071e-02  -2.3583551e-01  -7.6105943e-04  -2.4012506e-01   1.2857306e-01  -2.6166768e-01  -7.3540401e-02   7.5866810e-02  -1.7235581e-01   1.0562277e-01  -6.3913464e-02  -3.9415373e-02  -3.1518845e-02   1.5927102e-01
   4.6849299e-02   6.2694244e-02  -3.6006321e-03   5.6881484e-03   3.4936029e-02   2.0247852e-01  -2.5901156e-01   2.0120227e-02   7.8977097e-02  -2.9003706e-02  -4.7088528e-02   6.7011753e-02   1.2258159e-02   5.6910214e-02  -3.4651224e-02  -3.8700935e-03   4.7202771e-02  -2.3069674e-02  -2.5475808e-03  -1.5022228e-01   1.5214547e-01   2.5846642e-01  -3.6190657e-02  -1.7633165e-01  -3.0616092e-02  -2.2489196e-01   2.3891255e-01   5.9303857e-02   7.2101760e-02   2.3622561e-02  -1.0288774e-01  -2.2938535e-01   4.8753603e-02   4.2492870e-02  -1.9004463e-01  -9.7056242e-03   1.1574786e-02  -1.3001234e-02  -4.0799776e-03   4.8705617e-02   1.8284443e-01  -1.0156608e-02   8.4474730e-02   2.0470271e-02   1.4899804e-02  -1.0183634e-02  -4.5132118e-02   1.6963344e-01  -4.9285535e-02  -1.0630654e-01
  -3.7546188e-02   7.1829566e-02   1.0664360e-03  -9.9011740e-02  -2.2568528e-02   2.5838395e-01   1.0179491e-01  -2.4460633e-03  -4.9098954e-03   1.0689680e-01   1.4806526e-01  -3.9159854e-02   2.5291512e-01  -1.5138202e-01   1.3209521e-01  -6.8001279e-03  -1.8828918e-01  -9.0761113e-02   1.9418880e-02   1.5316495e-02   4.7390787e-02  -1.2807461e-02   9.0207803e-03   6.2220471e-02  -1.1905545e-01   1.2355612e-01   3.7458876e-02  -2.1381343e-01   7.4123168e-02   1.5951234e-02  -1.6367088e-01  -1.4620154e-01  -6.2108588e-02   1.2849831e-03   5.5082979e-02   1.8481553e-01   1.2528550e-02  -1.6059450e-01  -1.9036224e-03   6.6852743e-02   8.8307087e-02  -1.4747878e-01   1.0659850e-01   6.5523025e-02   3.7557427e-02  -3.3069157e-01   3.0983338e-02   2.6813598e-02   3.9783955e-01  -1.2214134e-01
  -8.9694181e-03   2.1219390e-01  -2.5525702e-03   1.1324957e-02   5.8169629e-03  -6.1591327e-02  -2.8405917e-01   2.6870179e-02  -2.6301592e-02  -2.2843652e-02  -3.9037936e-02   7.1058194e-03  -2.9418115e-02  -1.1554017e-01  -1.0178531e-01  -5.5866010e-02  -1.2051990e-02  -2.3247541e-02  -1.7557696e-04  -2.4764136e-03   2.6495228e-02   1.0218886e-01   2.9255789e-02  -8.9405650e-03   5.3806533e-02   9.9896812e-02  -5.0623703e-02   1.9814738e-01   1.3963720e-04  -1.8372132e-03   7.2734457e-03   7.2659016e-03   1.8296825e-02   6.7773998e-02  -1.5244452e-01  -2.2618024e-02  -7.7753079e-03   1.9778839e-01   6.0312649e-03  -1.5732377e-01  -2.4089029e-01   7.2184299e-02   8.5346556e-02  -2.1649439e-01   4.1207482e-02  -5.9888535e-02  -4.0414963e-02   1.4689189e-01  -3.7825339e-02  -7.7029876e-02
  -3.7920555e-02   5.2138402e-02   4.3156667e-03  -4.6367351e-02  -1.0644273e-01  -1.7173773e-01   5.9894996e-02  -2.5360953e-03   2.1560513e-01   3.3705888e-02   3.7105775e-02  -6.0333985e-02  -5.1394123e-02   2.2041504e-01   2.0164098e-01   8.1004400e-02   8.7315090e-02  -1.1760680e-01  -5.7105180e-04   1.2902225e-01  -3.0766196e-02   1.9753982e-02  -9.5951093e-03  -1.2977422e-01   6.0123831e-02   6.3435135e-02  -1.3615521e-01   6.9258037e-02   9.1488488e-02   5.9079098e-02  -1.1535574e-03   2.2773657e-01   1.4963690e-02   1.6042795e-01   7.6759621e-02   5.2998902e-02  -1.2265437e-01   7.7057016e-02  -1.9601782e-03  -1.9570231e-02  -1.3392347e-02   1.9061172e-01   9.5053708e-02  -3.6187219e-03   1.7387433e-01  -3.9005012e-01  -8.9381607e-02   6.6591890e-02  -1.6302723e-01  -1.6297541e-01
   6.1018224e-02   3.2336844e-01  -2.0517533e-03   1.4507383e-01   1.6817513e-01  -3.7812134e-02  -1.4964260e-02   1.7780289e-03   4.5305315e-01   4.5496777e-02  -3.7531420e-02   4.1103478e-02  -1.2026848e-01  -4.3400437e-02   1.0523013e-01  -1.3153719e-02   8.9487443e-02  -1.6553725e-01   1.0370334e-02   2.0370844e-01   1.5043333e-02   4.1492989e-02  -2.8322004e-03   1.3804365e-02  -1.4151051e-02   1.2857296e-01   1.5037296e-01   1.7067471e-01   1.0555042e-03   1.5977158e-01   1.0557748e-01  -5.0542973e-02   2.5415691e-02  -3.1039863e-02   9.8560013e-02  -1.0420913e-01  -3.8477943e-02   4.8724870e-02   1.8449532e-03   3.2875802e-01   1.3758014e-01   1.3765878e-01  -1.0632673e-01   3.3430584e-02  -6.2848154e-02   2.5182657e-01  -5.4128348e-02   5.8810421e-02   2.2191114e-01  -5.5151501e-02
  -3.6859247e-02   3.1228996e-01   3.3722704e-03  -8.9238217e-02   1.9369144e-01   1.1731979e-01   1.3216883e-02   1.7334794e-02   6.7773134e-02  -5.3307029e-02  -1.3330281e-01   1.4658877e-03   8.5091247e-03   1.7527566e-01  -2.9819340e-02   8.0747011e-02   3.9090777e-02  -1.5955231e-02  -4.9675544e-04   2.3735511e-01  -7.7675006e-03   1.1661402e-01  -2.9657195e-02  -7.6777819e-02  -2.9008962e-02   4.8342535e-02  -8.5680163e-02  -5.1961509e-02   5.3744391e-02  -1.7938805e-02   5.5629923e-02   1.8006271e-01  -2.7649144e-02  -1.1430866e-01  -9.8480237e-02   6.6104133e-02  -3.1915274e-02   3.4664027e-01   9.5275962e-04   1.6461081e-02  -1.5688745e-01   6.0065556e-02   1.3972516e-01  -6.3593652e-02   4.6375073e-02   1.7177977e-01  -8.4185926e-02   3.6735350e-02  -2.0053473e-01  -2.4676322e-02
   2.0995264e-02  -1.1449884e-01   6.6616859e-03   7.1388474e-02   1.6667030e-01   2.8801508e-01   7.2008919e-02  -7.7646981e-03   1.9401189e-01  -3.2891440e-02   3.3855774e-01  -6.2504855e-02   7.3571043e-02   1.7409256e-02   2.5600400e-02  -7.4554539e-03   1.5532537e-01   1.9762806e-01  -1.4554366e-02   6.8052903e-02   5.5413474e-02  -1.8794694e-01  -4.6883916e-02  -9.6612062e-02   2.8150022e-02   2.0028884e-01   3.9431530e-02  -1.9609147e-02   1.3015052e-01  -2.0051422e-02   4.0419175e-02   5.0778980e-03   2.9763206e-02   8.7031458e-03   1.5957189e-01   8.3508858e-02   1.5052694e-01  -1.1517439e-01   4.9243384e-03   1.3480351e-01  -5.2536131e-02  -8.5650533e-02  -2.1750446e-02   2.4169417e-01   6.4381027e-02  -1.1309962e-01   1.8226282e-01   1.3136361e-01  -9.7249881e-02  -1.2315107e-02
  -2.3020517e-02   1.5717223e-01   5.3927599e-03   1.0958123e-01   1.1857504e-01   1.7972671e-01  -5.7838941e-02   1.0479813e-02  -4.0490500e-01  -1.0345642e-03   3.5376366e-01   3.9369744e-02  -6.7180552e-02  -2.3630464e-01  -2.0757123e-01   4.5423836e-02   3.1852211e-02   1.3774143e-01  -4.0196693e-02   1.6003209e-01   3.6806546e-02   9.8260530e-02   6.0266907e-02  -2.5578917e-02  -1.4663446e-01   3.6836756e-02  -4.4461128e-02  -2.9166377e-01   1.4167506e-01   2.0109665e-01  -4.2432310e-02  -1.3313539e-01  -9.5799952e-03   8.6632596e-02  -2.2847976e-02  -1.1098184e-01   9.3438715e-02   1.8984641e-01  -1.9875503e-03   1.5862408e-01  -3.9718393e-04   1.7669207e-01   1.2726024e-01   2.1409014e-02   2.6115354e-01   2.8869511e-02  -2.2442070e-02  -1.9253002e-02   4.9234731e-02   1.7984474e-01
  -9.1394626e-02   1.1021313e-01  -7.7455991e-03   1.4681523e-01  -1.3664837e-01  -1.5645006e-01  -1.6829536e-01   1.5625375e-02  -1.2465361e-01   4.6487811e-02   2.4455995e-01  -3.2760491e-02   7.6184239e-02   2.4987168e-01   1.7774077e-01   3.8767844e-02   1.9861076e-03  -8.3039064e-02   2.5208868e-02   1.1203322e-01   4.7186936e-01   1.3408117e-01   3.2101332e-02   1.6783074e-02  -2.0703500e-03   1.3987234e-01   1.6015869e-02   8.7313240e-02   1.1825725e-01  -2.3066157e-01   1.2973452e-01  -2.7887977e-03  -2.5447358e-02  -2.5030449e-02   1.6390847e-01   3.8311115e-02   1.3515435e-01   3.2528266e-01  -2.8556410e-03   1.6140312e-01   9.4024169e-02   2.4245342e-01  -1.3388554e-01  -8.5180098e-02   2.7302877e-01  -2.4144946e-02   4.7101561e-02  -7.8050110e-02   2.5787092e-01  -2.5088153e-02
   5.0785406e-02   1.0173618e-01   3.2719982e-03   1.8097307e-01   2.7284515e-01   1.3547015e-01   2.3007275e-01  -2.3694742e-02  -2.0597249e-01  -1.1453492e-01  -1.1480153e-01  -1.3814127e-02  -1.2045852e-01   3.7056574e-01  -9.3093739e-04   1.0845368e-02   8.1567046e-02  -5.6798027e-02  -4.6395878e-02  -3.2579237e-02   1.6386898e-01   1.1095782e-01  -7.5734558e-02  -1.6954925e-01   1.0162877e-01  -3.6030209e-03  -1.5532968e-02   2.4264602e-02   8.2298287e-02   2.6735613e-01  -6.6028858e-02   2.3354008e-01  -1.3111880e-02  -1.3230180e-01  -2.6873354e-01  -1.6157908e-01  -1.2870050e-01   9.6588637e-02  -3.9382288e-03   3.2123742e-01   7.3243453e-02  -2.4829455e-02   4.9058337e-02   1.1424866e-01   1.0214688e-01  -1.2342890e-02  -5.6969703e-02  -2.1372600e-01   6.2254972e-02  -1.3483555e-02
  -3.8502702e-02  -1.0122914e-01  -2.4462445e-03  -2.3598734e-02   2.4523166e-01   1.1566973e-02   1.5105716e-02   4.0403314e-02  -1.0384071e-01   1.9450390e-02   1.9094621e-01  -1.0684007e-02  -7.2073574e-02   4.1082461e-02  -1.3334583e-01   8.5988017e-02  -1.7668837e-02   5.0325137e-02   2.6923831e-04   1.4747343e-01  -1.4186759e-01   1.1663350e-01  -1.8279051e-02   1.4394374e-01  -2.0200409e-02  -2.9883243e-02   2.8747881e-02  -1.8095286e-01   1.0873033e-01   1.8352445e-01   2.9796132e-02  -1.4068777e-03   1.6669900e-03  -4.3549838e-02  -8.0661677e-02   9.8172902e-02   1.6707113e-01   1.1206214e-01  -6.8908066e-03  -2.4334104e-01   1.4528452e-01  -1.7901320e-01   2.7418972e-02   1.7316513e-01   1.0335027e-01  -6.9297202e-02  -3.1252504e-02   4.2921965e-02  -1.0407184e-01   5.0249598e-02
   1.9785037e-02  -1.0673791e-01   1.6359758e-03   1.7026275e-01   2.2081566e-01   4.1985399e-03   2.9649659e-01   1.3761293e-02  -3.4085532e-01  -4.5665158e-03   3.9439673e-02   1.6632483e-01  -1.4440086e-01   3.1417108e-02  -1.3251581e-01   9.0773030e-03  -2.1105302e-01   1.3753473e-02   9.4565325e-03  -3.1791135e-01  -2.2042891e-02   2.2155945e-01  -1.3252389e-02  -1.8228985e-01   9.7493199e-02   1.7692639e-01   5.3716796e-03   3.3667175e-02   2.3015284e-01  -1.0252086e-01  -3.2901171e-02  -7.3234255e-03  -3.3153634e-02   3.1034189e-02  -7.1955680e-02  -1.1233126e-01   5.1736417e-02  -2.0752799e-01   1.7139670e-03  -6.3686910e-02   1.6951643e-01   2.2416863e-01  -8.9224230e-03   1.2051487e-01   1.3611590e-01   2.9130715e-01  -5.0073646e-02  -1.0421007e-01  -2.6321272e-02   2.1191549e-02
  -1.2600163e-02  -7.1669491e-02   7.4533705e-03  -1.3502670e-01  -1.7261912e-01   3.4109548e-02  -1.5587358e-01  -1.7100003e-02   2.8425706e-01   3.6958839e-02  -1.5329883e-01  -1.0976585e-01   2.3105735e-01  -3.0442812e-01  -2.4324286e-03  -3.3309714e-02  -3.5859226e-02   9.5092447e-03  -2.8213430e-02   8.5856202e-02  -3.0907172e-01  -3.0565212e-01  -5.6760052e-02  -1.1239191e-01  -2.7703004e-02   1.7179372e-01  -2.2339074e-02   5.6276389e-02  -1.0094528e-01  -1.3727879e-01  -6.7734580e-02   3.8227370e-01   4.8997958e-03  -5.5553452e-03   4.7698942e-02   9.0042890e-02  -1.2703962e-01   1.8925300e-01   8.3551620e-04   2.6849795e-02  -1.2957784e-01   1.3487974e-01   7.0681789e-02   7.7581732e-02  -5.3643616e-02   2.3604440e-01   1.3152110e-01  -3.2622177e-01  -1.7181821e-03   1.2962413e-01
  -6.5416969e-02  -3.4766000e-01   4.0890075e-03  -1.3573579e-01  -9.2338312e-03  -1.5737345e-01   2.9995295e-01   1.7950374e-02   5.0455320e-01   1.0405963e-01  -1.3521177e-01   3.1631012e-02  -1.5119013e-01  -2.2714528e-01  -5.8514591e-02  -2.1798969e-02   4.1103531e-02   6.6001489e-02   2.1677132e-03  -1.7873716e-01  -9.9891566e-02   1.5412522e-01   8.4542434e-03  -1.3977206e-01   9.6607479e-02  -1.6700585e-01   4.5488834e-02   3.2782197e-03  -4.4854916e-03  -6.0849419e-02  -3.5040570e-03   4.5697352e-02   6.0360250e-02   7.6738622e-02   1.9325617e-02   1.3934867e-01  -3.0353958e-02   3.0313292e-01  -4.7334630e-03  -6.3064549e-02   1.6221464e-01  -2.7777552e-01  -1.1411165e-01  -2.0227226e-01  -4.2616869e-01   7.4177125e-02   3.7676176e-02   1.4269894e-01   1.0958490e-02   6.3006037e-02
   5.5584919e-03  -1.5671719e-01   1.4264788e-03   1.9231797e-01  -3.1508456e-02   1.9180121e-02   8.8206202e-02  -4.1224640e-03  -3.8043703e-01  -3.3329287e-02   7.9834108e-02  -3.2602113e-02   1.9266632e-02   4.0159817e-01   2.1274311e-01   3.9870428e-02   4.8564906e-02  -1.7881336e-01   4.0527761e-02  -1.7190855e-01  -1.5132261e-01   2.0705639e-01   4.7190032e-02   1.1417002e-01   3.6255471e-02   1.1862153e-01  -8.1570364e-02   8.2081173e-02  -2.3345632e-02  -2.1932200e-01  -1.6101557e-02  -2.3660759e-01  -5.1970671e-02   2.3010386e-02   2.3291476e-01  -7.8912576e-02  -1.1529001e-01   2.1715797e-01  -9.6263193e-03  -9.2605051e-02   9.3735646e-02   9.7637453e-02  -9.5577841e-02  -7.2343946e-02   2.6071108e-01   4.3867944e-01  -3.0274959e-02   2.4845438e-02  -1.0074405e-01  -9.6845593e-02
   2.1848769e-02   1.2724113e-01  -2.7811796e-04   1.1870559e-01  -7.6904917e-02   9.3689431e-02   1.2284920e-01   5.6477965e-03   3.3829491e-01  -3.5587660e-02   9.3137270e-03  -3.7630646e-02  -9.3276529e-02  -1.2984732e-01  -7.4335172e-02  -7.2581479e-02   1.1377382e-02   6.3107290e-02  -7.4334382e-03  -2.7412199e-02   3.2310938e-01   3.0556160e-02   5.5129117e-02  -1.2011944e-01  -1.8060437e-01  -7.8372040e-02   3.7450725e-03   2.4951045e-01  -8.2800162e-02   2.8172221e-03   1.1951341e-01   3.3592357e-02  -1.5114673e-02   1.7465848e-02   7.9920394e-03   2.3279286e-01  -3.0762450e-02  -1.3919010e-01   1.8511718e-03  -1.9351356e-01  -1.2738758e-01   5.7917259e-02   2.9228732e-02  -1.3976321e-01   4.3125531e-01   4.7159212e-02   8.7681662e-02   8.2615712e-02  -8.2662624e-02   8.1464127e-02
  -8.5630700e-03  -1.4942257e-01   9.6784491e-04   2.3356272e-02  -2.1308720e-02  -1.5795331e-02   2.9140688e-01   2.2754318e-02   3.6838228e-01   5.8330112e-02   9.6301325e-02   2.1063549e-02  -2.4070944e-03  -2.5510090e-01   1.2730155e-01   1.9261192e-02  -4.8829394e-02   1.1942234e-01  -9.5831236e-04   1.4285911e-01  -5.4112651e-02   1.7763877e-01  -4.0669773e-02   1.9143079e-01   3.5084802e-01   6.2170762e-02   2.2975398e-01  -1.6561137e-02   6.6110802e-02   3.0361110e-01  -3.3667031e-02   1.5585324e-01   1.9517120e-02  -3.4236297e-02   1.4361288e-01  -2.2278839e-01  -7.2274065e-02   1.9849774e-01  -1.0697050e-03  -2.7805441e-01  -1.6068403e-01  -7.7292260e-03  -1.3889502e-01  -2.0703424e-01   2.1033349e-01  -3.4688245e-01   6.2364225e-02   2.4309912e-01   1.1679103e-01  -2.3350016e-03
  -1.8760890e-02   7.1003495e-02  -1.4860840e-03  -1.2790672e-01   6.0368258e-02   8.3351210e-03  -1.5004341e-01  -3.0551069e-03   8.5727806e-02  -1.3742085e-01  -9.2221576e-02   6.2131501e-03  -1.6713353e-01   5.4919145e-02  -1.6708933e-01   3.4854213e-02   1.5256421e-02  -4.9651177e-02   1.8496074e-03   4.8170745e-02  -5.9951415e-03   2.6635757e-01   5.1054978e-03  -1.1585327e-01   1.0518771e-01   1.7064056e-02   1.0751248e-01   1.2294080e-01   7.4586101e-02  -6.3194230e-02  -1.5429017e-01   9.5868702e-02  -2.1050394e-02   1.4017681e-01  -5.1344025e-02  -1.0267915e-01   3.0671884e-02  -4.5212947e-01  -3.7728941e-03   1.6663347e-02  -6.2715624e-02  -1.3920516e-01   5.6568431e-02   1.1350611e-01   9.5789640e-02   1.5501297e-01   1.1475832e-02  -6.4555709e-02   1.1721728e-01   1.3749181e-01
   4.3945739e-02   1.3752168e-01  -1.4817533e-03   8.2585219e-02  -6.6543761e-02   1.4328070e-01  -5.1602794e-02   1.3752870e-03  -1.5939262e-01   3.9498491e-02   1.9160083e-02  -1.0937822e-02   1.3991392e-01   6.7868211e-02  -7.0135536e-03  -3.9742279e-02  -1.9573835e-01   1.3078208e-01   5.0550077e-02  -4.2204569e-02   7.2165359e-02  -1.4583881e-01  -3.9164600e-02  -2.9783277e-01   2.2135467e-01   1.1801731e-01  -7.4030595e-02  -1.8445245e-02  -7.7576392e-02  -2.8552094e-01   1.0985365e-01  -2.5417581e-01   2.1345598e-02  -8.5753612e-02   4.1235936e-02   1.3317772e-01   1.4263698e-01   4.5821812e-02   2.4850194e-03  -1.7584713e-01   1.0991180e-01   3.2823540e-02   9.5757233e-03   1.2558551e-01   8.4565477e-02  -1.5803474e-01   6.8524385e-02   1.9091678e-02  -1.9730106e-01  -2.2019753e-01
   3.4399735e-02   3.1674281e-02  -4.9120917e-03  -9.0185438e-02  -1.4006403e-01   2.3529428e-01   6.2851341e-02  -1.0866923e-02   1.5408308e-01   4.7975677e-02   2.1543887e-01  -1.0148437e-02   6.8431560e-03  -8.7595773e-02   1.8748001e-01   5.5863045e-02   2.4172429e-02  -3.7501254e-02   1.5645622e-02   7.4500264e-02   9.4751045e-03  -8.4408864e-02   5.8698467e-03   3.9124033e-02  -3.3502620e-02   9.8502621e-02  -1.0112979e-01  -1.2437750e-01  -1.0865303e-01   7.9448680e-02  -1.5973966e-01   5.9404067e-02  -6.4191686e-03  -9.2372651e-02  -2.7154262e-03   2.8684558e-01   2.3877623e-02   6.8189255e-02  -1.8948390e-04   8.8935018e-02  -1.0616315e-01   2.8852139e-01  -8.3734267e-02   1.0248578e-01   2.0673355e-01   1.1770539e-01  -3.8694685e-04   2.9826822e-02   7.7495004e-02  -8.5234371e-02
  -1.1053853e-02  -1.4090360e-01  -4.3432734e-03  -1.4517191e-01   1.7532933e-01   8.5791063e-03   1.0695447e-01   2.4163861e-02   2.1584019e-02   1.2413087e-02  -4.1021955e-02   3.3573140e-04  -3.1007450e-02   1.4021610e-02  -5.9401164e-02  -1.6743048e-02   1.6090546e-02   1.1631569e-01   1.5394201e-02  -1.1543951e-01   2.5487236e-01   1.8033166e-01  -7.5761552e-02  -1.4081115e-01  -1.7206245e-02  -2.2324808e-01   2.0666926e-01   9.3523315e-02   7.8904316e-02   1.1406728e-01  -8.6187515e-02  -7.9794706e-02  -9.7231357e-02  -1.2669624e-02  -8.6798576e-02   1.9111919e-02   2.2231894e-02   3.6436809e-02   1.6123023e-03  -1.6153205e-01  -1.7151020e-03   9.8201937e-02  -1.0222220e-01   3.1220195e-01  -2.5283332e-01   1.2983176e-01   1.5518131e-02  -1.3294952e-02   4.9445285e-02   6.8768162e-03
  -4.2307777e-02   1.5951447e-01   3.7544127e-03   1.3621021e-01  -1.5481197e-01   1.2065826e-01   2.1750812e-01   2.1710792e-02  -1.2617638e-02   4.4338050e-02   9.0801653e-02   7.8016037e-02   2.6056523e-02   3.2264111e-02  -2.2732012e-01   3.2527371e-02   1.2740238e-01   1.2241201e-01   2.4362821e-02  -1.7083714e-01   1.3013825e-01  -1.0394647e-01   2.6017669e-02  -2.8744762e-01   1.0708710e-01   2.4552613e-02  -1.0535523e-01  -1.8075287e-01   3.7577364e-02   5.7631219e-01   1.4224855e-01  -2.4339699e-02   4.2683126e-02  -1.1652135e-01   1.0178388e-01  -1.7575435e-01   1.8768162e-02  -1.9095519e-01  -2.2303870e-03  -2.8421341e-02  -2.1151459e-02   8.3850795e-02   3.3702016e-02   1.7910745e-01   1.5386424e-01   1.6087395e-01  -8.1663640e-02   7.6024254e-02  -1.2215368e-01   7.5361643e-03
   1.9984270e-04  -1.1848742e-01  -6.1886267e-03   1.2130434e-01   2.3794204e-01  -2.4122719e-01  -1.1490865e-01  -9.2696068e-03  -1.4197236e-01  -2.0987840e-02  -2.3401538e-01   9.9726935e-02  -7.3478356e-02  -1.3230994e-01   1.3527064e-01   3.5317088e-02   3.0815465e-02   8.5618569e-02  -1.2200987e-02  -4.6586380e-03   2.7001388e-02  -8.2118551e-02   3.4002251e-02   2.1930618e-01   6.0506137e-02   1.3436464e-01   1.1814128e-03   1.0246890e-02   1.7837827e-02  -1.5029041e-01   8.6898928e-02   1.5005477e-01  -3.1096570e-02   4.2686744e-02   9.1887026e-02   3.7043889e-02  -3.2379007e-01   3.6637727e-01   2.1358142e-03   7.1488014e-02  -1.5877489e-02  -4.5203061e-02  -1.1832502e-02  -1.5700753e-01  -2.0882083e-01  -1.4236379e-01  -5.1953199e-02  -9.7927091e-02  -1.2673141e-01   4.7845383e-02
   9.4162005e-03   2.8762518e-02   8.2154246e-03   8.6045250e-02   1.4032936e-01   2.2003106e-01   1.8886836e-01   6.4440873e-03  -1.4320676e-01   6.1816656e-02   1.0303825e-02   3.0156292e-02  -6.0924682e-02  -2.1897865e-01  -2.7986332e-02  -5.9581571e-02  -2.2893741e-01  -1.2143008e-01  -3.5080627e-02   5.3280247e-02   5.3170880e-02  -6.4624472e-02   4.5614197e-02  -2.5694558e-01  -8.9371577e-02  -6.0129177e-02   4.5361254e-02   5.9319992e-02  -1.7819250e-03   5.8264460e-02  -9.3833245e-03  -1.5414027e-01   4.6072445e-02  -2.5088259e-02  -3.2564875e-02  -6.8825799e-02  -4.6562508e-02  -1.5020548e-01   2.3363632e-03  -1.9685176e-02   4.9221721e-02   2.2371835e-01   1.1611066e-01  -1.0415151e-01  -8.7243355e-02   2.6358919e-01  -7.1401497e-02  -9.4911327e-02   8.6158346e-02   3.5676723e-02
   1.7383315e-02  -2.4033987e-02   4.2027976e-03  -1.3471956e-01   2.3508800e-01   1.4730316e-01  -3.5954993e-02  -2.8130617e-02  -1.4529412e-01   7.7358095e-03   1.8334799e-01  -5.1792793e-02  -4.9638684e-02  -2.0898044e-01   8.8537203e-03   1.6576359e-02   4.0578113e-02  -4.3597436e-02   3.8072393e-03  -2.4575393e-02  -1.5083916e-01   1.3095736e-01   1.8107040e-02   9.9452280e-02  -1.1739803e-01   1.3246478e-01   4.4839908e-02  -6.7416708e-02  -8.8192233e-02  -4.0108546e-01  -1.6204891e-01   1.2466545e-01   2.0776620e-02  -6.6517402e-02  -4.2874547e-02   5.7445930e-02   1.1763534e-01  -5.3475906e-01   2.5703800e-04   1.1113064e-01  -1.2529173e-02  -2.2269557e-01  -2.6810850e-03   1.4204267e-01   4.1440505e-03  -1.2506331e-01   1.9076840e-02   1.2363855e-01   1.1626667e-01   1.9249067e-01
   4.3667195e-02   5.6614202e-02   6.5933014e-04   2.5688550e-01   9.8316251e-02   1.2553787e-01  -2.0489803e-02   2.4164975e-03  -1.7250547e-01   5.0536862e-02   1.8678232e-01   2.6570169e-02   1.9876573e-02  -2.3075615e-01  -2.0026942e-01   2.6003351e-02  -3.9837461e-03   2.1673502e-02   4.2887513e-02   3.2479050e-01   9.2335619e-02   9.0595493e-02   4.4161208e-02   1.7527011e-01  -7.3309998e-02  -3.6018581e-02  -7.6863485e-02  -1.2671212e-01   2.4859895e-02   1.4697289e-01  -1.2246595e-01  -1.7339519e-01   1.9457893e-02  -4.5681074e-02   8.9960587e-02  -1.7868261e-02   1.1238625e-01  -9.6377773e-02   3.9514658e-03   2.1886234e-03  -1.3024985e-01   7.1922373e-02  -1.1274290e-01   6.6448576e-02   1.3489512e-01   4.6673147e-02   5.2263401e-02   1.5716932e-01  -3.7812757e-02   4.7789681e-02
   8.1204275e-02   2.8631156e-02   5.5110997e-03   1.6971044e-01   2.1167968e-01  -2.0721527e-02   1.1833426e-02   5.1672054e-03   2.3192138e-01   5.6013725e-02  -2.9152415e-01   6.4238104e-02  -1.1265658e-01  -2.3889713e-02   2.4319358e-02  -2.4797507e-02  -2.7573856e-02  -3.8187026e-02   3.8107317e-02  -1.0093525e-01  -4.2242697e-03   1.9127396e-01  -1.2512818e-02   1.2111421e-01   6.0224252e-02   1.9755299e-02   8.5556670e-02   4.7415696e-02  -5.6582072e-02  -5.6895740e-01  -2.6073711e-02   2.1278905e-01  -2.1252012e-02   6.2074619e-02   3.7859509e-02  -1.2065328e-01  -6.3714861e-02   2.1835618e-01   2.1365357e-03  -8.9367249e-02  -1.4902939e-01  -2.8680272e-01   7.9996575e-02   2.2055782e-01  -7.3106286e-02  -4.0069415e-02  -7.1380781e-02   1.7065735e-02  -3.7303238e-01   3.1566390e-02
   4.6423486e-03  -1.7295471e-01   8.3776643e-03  -1.0759780e-01  -1.7805246e-01   2.6816351e-02  -2.5454648e-01  -2.6182759e-02   1.8503125e-01  -1.2483938e-02  -1.9669367e-01  -2.5576869e-02  -6.6347943e-02  -1.4977458e-01   5.4249915e-02  -5.6668828e-02  -6.5541574e-03  -3.6616675e-02  -1.7286825e-02  -3.2387860e-02  -1.3245823e-01  -1.0714402e-02   5.9634945e-02  -7.0017076e-02  -6.0489268e-02   2.9947123e-02  -7.8909675e-02  -1.8631807e-01  -1.1266422e-01   7.6782965e-02  -6.5252578e-02   3.3291680e-01  -1.6203150e-02   3.7849995e-02   1.0342082e-01   1.5855250e-01  -1.0603128e-02  -1.5200453e-01  -2.1802847e-03   3.7655642e-02   1.3721489e-01  -1.8372551e-01  -9.6496603e-02  -2.7786848e-01   1.9883748e-01   1.4600834e-01  -5.7899443e-02   3.8720464e-02  -5.8466605e-03   9.6782139e-02
   6.7243836e-02  -4.3963754e-01   5.3463512e-03   2.7683227e-01   8.6004785e-02   7.4001866e-02   1.6544464e-01  -2.2696717e-02   1.3156870e-02   5.2722451e-02  -1.5895898e-01  -1.3841094e-02   8.8048637e-02   8.7804253e-02   6.5321765e-02  -9.7194487e-03  -5.3101906e-03   6.5458239e-02   3.8394038e-03   1.2820128e-01   3.4272826e-01  -1.3276043e-01   4.5519639e-02  -2.1620869e-01  -1.8694747e-01   1.2025783e-01   1.8592723e-01   1.0425051e-01  -1.7077950e-01  -2.1911150e-01  -2.3234492e-02  -1.7958416e-02  -1.0781716e-02   1.5423409e-03   1.6228574e-01   1.1274300e-01  -1.0281477e-01  -4.3304467e-02   8.1006185e-03  -5.4033504e-02   6.9452329e-02   4.5546772e-02   4.1968995e-02   2.1625186e-02   2.4823537e-01   4.0166093e-02   7.6474916e-02   1.7671597e-01  -2.2723487e-02   1.5422905e-01
   3.9639845e-02  -5.1037785e-02  -3.3108457e-03  -2.3790242e-01  -1.5385142e-01  -6.8602978e-02  -1.5188296e-01   4.2213021e-03  -6.2584791e-02   8.3512058e-02  -8.3567577e-02   9.3523064e-02   1.1471204e-01   1.8819351e-01   3.7538548e-03   2.0055780e-02   9.5099351e-02  -3.9549233e-02   3.3402487e-02   8.5775777e-02   1.1994210e-01   8.2590526e-02  -2.9305363e-02   6.7285633e-03  -4.4248188e-02   6.1608303e-02   1.3914447e-02   1.1564645e-01   1.1810325e-01  -3.3024702e-01  -6.3621673e-02   1.7714057e-01   9.4425493e-03   5.6070989e-02  -7.0115410e-02   1.8727754e-02  -6.5304770e-02   2.4317952e-01   2.7454498e-03   1.3261996e-01  -1.2896768e-01  -2.7943150e-01  -7.5779822e-02   3.1646965e-03  -4.6786237e-01  -4.3522215e-01  -5.0686160e-02   1.7314049e-01  -2.3389507e-02  -1.3014167e-03
  -1.8373252e-02   1.4514911e-01   8.1006757e-03  -1.3246989e-01   7.7196512e-02  -4.6139259e-02   4.0142811e-02  -6.7738160e-03   1.7208388e-01   1.6231696e-02   2.6877956e-01  -7.9392779e-02   7.7532135e-02   6.1977983e-03  -3.7663032e-02  -4.0391084e-02   1.8419717e-02  -4.1188343e-02   2.9026972e-02   2.7823816e-02  -6.5033602e-02   1.3263387e-02   4.2601063e-02   5.6047261e-02   1.3204125e-02  -8.2807009e-02  -9.5324164e-02  -4.6275022e-02  -7.0327441e-02   3.9741111e-01   3.4179662e-02   1.0389022e-03   1.6071670e-02   5.6661247e-02   1.3954563e-02  -1.4447733e-01   1.0294851e-05   6.0241742e-02  -5.1445006e-03  -1.3588720e-01  -1.0070177e-01  -3.1581077e-02  -2.9882594e-01  -1.3270842e-01  -5.1133404e-02  -2.1996472e-01  -1.0150127e-01  -1.1200476e-01  -4.8353181e-02  -5.7370944e-02
  -1.0113743e-02  -1.7364967e-01   1.8323031e-03  -5.1649673e-02   1.2414646e-01   2.9957284e-01   1.4658338e-02  -1.1542883e-02   6.2865063e-02   1.2331834e-02  -1.4511665e-01   3.3019039e-02   2.1808722e-01  -7.5590743e-02  -1.0693927e-02  -3.2484361e-02  -1.9349276e-01  -3.1707899e-03  -2.4193994e-03   3.6889476e-02   6.4236845e-02   2.4309219e-01  -3.4627305e-03   1.4423397e-01  -2.2720082e-01  -4.7129258e-02  -7.2056250e-02  -2.3817140e-01  -3.2250414e-02  -1.1548947e-01   9.3269413e-03  -2.9461661e-01  -3.2374837e-02   1.8917313e-02  -5.6023424e-04  -5.4036429e-03   2.2055001e-01   8.4413217e-02  -4.6322019e-03  -3.2856810e-01  -8.7411322e-02  -5.2135385e-02  -2.7074412e-01   3.4743907e-02  -1.6728028e-01  -1.1364516e-01  -7.9916894e-02  -2.4315428e-01  -1.3631721e-01  -1.0159445e-01
   2.1044959e-02   1.5434802e-01   6.3922562e-03   6.1183382e-02  -8.1198027e-02   2.4491221e-02   1.2344642e-01  -2.0275129e-02   2.1837688e-01  -7.4112737e-02   2.4395915e-01   2.0629036e-02   3.4962524e-02  -9.5491917e-02   4.4953480e-02  -1.8763232e-02   1.6518266e-01   1.4729390e-01  -2.2314205e-02   3.0573471e-01   3.7111591e-02   1.6946482e-01   3.1503988e-02   9.5370776e-03   1.1331853e-01   1.6053595e-02  -1.4284617e-01   1.7804103e-01  -4.6379311e-02   3.1699835e-02  -3.8740867e-02  -2.1195337e-01  -1.5852625e-02  -1.3761694e-02   1.4417543e-01  -4.2856785e-03   7.8273697e-03  -2.6603801e-01  -4.2860947e-03  -5.9174199e-02  -7.8246952e-02  -8.3909671e-02  -1.2735099e-01  -1.9824190e-01  -1.6785368e-01  -2.2089627e-01  -8.7958647e-02  -2.6627000e-01  -1.4125045e-01  -1.6845967e-01
  -4.9849720e-02   1.1780839e-01  -6.7662451e-03   6.9663372e-02  -2.2308161e-01   2.6668157e-01  -1.1165951e-01  -1.2376550e-02  -8.6561846e-03  -4.8042214e-02  -3.8879447e-02  -4.8083637e-02  -9.3172243e-02   3.7303868e-02   5.7710703e-02   7.8915623e-02  -3.1446414e-01  -1.2691902e-01   5.8543823e-02   1.5954583e-01  -8.2940381e-02  -1.2360957e-02   7.4833850e-03  -1.8072303e-01  -1.6616963e-01   1.6882637e-03   1.8994625e-03   1.1174407e-01  -3.9536860e-02   1.4068964e-01  -2.2620901e-02  -6.5056284e-02   5.6453414e-02   8.2101948e-02  -7.4318634e-02   2.5458430e-02  -7.9208888e-02   2.1262858e-02   3.0474840e-03   8.7222089e-02   2.3657729e-01  -1.3274092e-01  -2.1869801e-01  -1.2541177e-01  -2.1315903e-01  -2.4658846e-01  -1.2814460e-01  -3.2399352e-01  -3.8661818e-01  -2.2122146e-01
   3.0779019e-02   6.3540690e-02   1.3994194e-03  -1.7228600e-01   5.1806870e-01   3.2119752e-02   1.3221991e-01   5.6726044e-04   1.4596062e-01  -8.0294189e-03   5.0400717e-02  -8.3569196e-02  -5.4679259e-02  -1.7039303e-01  -1.3419985e-01   4.6625546e-02  -3.1826089e-02   3.0768535e-02  -1.5382600e-02  -7.7699651e-02   1.4519319e-01  -1.2870722e-01  -9.6772417e-02  -9.4643289e-02   8.4446568e-02  -6.9913197e-02   9.9270476e-02  -1.1725727e-01  -1.1431973e-01   1.0058327e-01  -9.8440119e-03  -3.0270029e-01  -3.6190328e-02  -1.0338606e-01  -7.7666379e-02   1.8468090e-01  -8.4838990e-02   2.7293413e-01   2.1281235e-03  -3.6190876e-02  -4.4204522e-01  -4.9727297e-01  -2.1458220e-01  -1.6278918e-01  -4.4087677e-01  -4.9578965e-01  -1.4662518e-01  -1.0579384e-02  -2.7906943e-01  -1.0732683e-01
  -8.3643194e-03   5.6516180e-02  -7.2520772e-03  -1.1465166e-01   2.0653152e-01   2.9046579e-01   4.7164714e-02  -5.6333754e-03  -8.5221553e-02   1.1131595e-02   1.6745438e-01   3.8013402e-02  -1.4999100e-01   3.5546717e-01   9.9281134e-02   2.1458898e-03  -1.6781448e-02   6.5229559e-03  -1.8189374e-02   1.5573714e-02  -1.7638341e-01  -1.7169225e-02  -4.8332326e-03   2.6741450e-02   1.6771682e-02  -1.0107845e-01  -8.5337533e-02   3.2616206e-02  -1.0809062e-01  -2.0336259e-01  -3.3064212e-02  -1.4744115e-01  -1.1444599e-01  -1.0554819e-01  -5.3882944e-02  -3.1568256e-02   1.3162420e-02  -2.4131836e-01  -6.6092657e-03  -1.3538439e-01  -2.0312309e-01  -4.8936587e-01  -3.9893567e-01  -9.3162019e-02  -4.0365156e-01  -1.7554173e-01  -6.3685680e-02  -4.3908052e-01  -1.8577140e-01  -7.0706908e-02
